5
346
347
348
348
349
349
349
350
350
350
350
350
349
348
350
352
352
349
351
354
356
355
353
356
355
357
360
360
357
354
351
348
346
348
349
348
347
349
359
383
402
410
413
409
351
259
207
216
254
284
305
317
326
342
356
368
373
374
374
377
378
379
380
382
384
385
387
388
389
391
394
395
395
396
398
397
397
398
397
396
394
391
388
383
378
374
368
365
360
356
352
351
349
348
345
345
344
344
343
343
342
343
343
343
344
346
347
349
350
350
350
350
350
351
350
350
350
351
350
351
354
357
356
354
356
358
359
359
359
357
353
349
347
347
347
349
348
348
349
363
386
401
406
409
391
307
218
195
223
261
287
308
319
332
348
362
369
371
373
374
375
377
379
382
384
386
387
388
391
393
393
396
399
400
400
401
401
401
400
398
398
395
392
388
383
379
375
369
363
359
355
352
351
348
347
346
345
346
344
344
343
343
344
346
346
346
346
347
347
349
348
348
349
349
350
350
350
351
351
352
354
356
356
358
359
359
361
361
359
355
351
347
344
344
344
346
346
345
348
364
386
399
404
404
371
274
196
195
232
265
292
309
324
342
358
368
372
375
376
377
379
381
381
385
388
390
391
393
395
397
399
401
402
403
405
408
407
407
408
408
405
402
400
395
389
384
378
371
365
360
356
352
349
348
347
345
344
343
342
342
343
343
344
344
345
346
345
345
346
347
346
345
346
346
347
347
348
348
348
349
349
352
354
355
355
355
357
359
359
357
354
349
346
345
344
343
344
345
344
347
361
384
399
402
401
368
272
197
193
230
265
291
309
326
346
364
372
374
376
376
379
381
382
384
386
388
390
392
393
396
399
399
401
403
404
405
406
407
408
408
407
406
405
402
399
392
385
377
372
365
359
355
351
346
344
344
343
342
342
342
342
342
343
342
343
344
345
345
346
347
348
347
347
348
348
348
348
347
348
348
349
350
350
351
353
355
357
358
357
357
358
358
354
350
345
343
342
343
343
344
344
347
357
379
394
400
403
381
293
210
195
223
256
284
306
322
340
359
369
373
374
376
378
380
382
384
386
388
389
391
393
395
399
400
402
403
405
408
408
408
410
409
409
408
407
404
401
397
390
383
378
371
364
358
354
350
348
345
344
345
344
344
344
344
344
343
342
344
345
345
346
347
348
348
347
347
348
348
348
347
348
349
349
348
349
349
352
354
353
355
356
357
358
359
357
354
349
345
344
344
346
347
346
345
351
369
390
401
406
409
373
279
204
196
232
266
292
309
318
335
352
366
369
371
374
376
377
379
380
382
383
386
386
387
390
389
392
394
395
396
398
399
399
399
399
399
398
396
394
390
386
380
375
370
365
360
355
351
347
345
344
342
341
340
340
340
340
340
341
342
343
342
343
343
342
345
345
345
344
344
345
346
346
348
346
346
347
348
351
353
351
352
353
354
354
355
353
348
344
341
341
341
343
342
342
345
355
376
394
402
408
407
349
253
199
208
247
278
302
315
324
338
355
369
372
374
375
375
377
380
380
382
384
385
386
387
387
390
392
392
396
397
397
398
399
399
399
398
395
394
390
387
382
377
373
370
366
360
358
356
353
350
348
348
348
348
346
347
347
347
349
351
351
350
352
352
353
352
353
352
353
354
354
354
354
354
356
358
360
360
359
359
361
361
361
361
359
355
351
347
347
346
347
346
346
348
359
380
397
406
409
401
331
233
191
210
251
283
304
315
328
343
360
368
372
372
374
375
376
376
377
378
378
379
380
383
384
385
387
387
389
389
389
390
391
389
387
386
384
381
379
374
368
364
358
354
350
346
342
340
339
337
337
336
335
335
335
334
334
335
335
335
335
336
337
338
339
339
338
339
340
340
340
342
342
343
345
348
348
348
349
350
351
352
352
349
343
338
337
335
337
339
338
336
339
350
371
387
394
393
373
285
196
179
213
252
281
301
316
334
351
363
367
369
370
372
375
377
378
380
382
385
386
389
391
393
395
398
399
400
401
403
405
405
404
404
403
401
398
395
391
383
378
373
368
363
358
355
352
348
347
347
346
346
345
345
345
345
346
345
345
347
348
348
348
349
350
350
351
352
352
352
353
353
353
353
356
358
360
360
361
361
360
363
361
358
354
352
349
346
347
348
347
347
348
359
381
397
401
399
373
282
198
188
225
263
291
311
327
345
364
372
376
377
378
381
383
384
386
387
389
391
394
396
399
401
403
405
407
407
409
409
411
411
411
409
408
407
404
400
395
389
382
377
370
365
360
355
352
350
348
347
345
344
343
343
342
343
343
345
347
346
345
347
347
347
347
348
349
350
350
350
350
349
349
350
353
357
359
360
360
360
361
363
360
357
354
351
347
345
344
345
345
346
348
355
375
391
399
404
386
303
215
193
220
257
289
310
325
343
363
374
377
378
381
383
384
386
388
390
392
394
395
398
399
401
404
405
408
409
412
413
414
414
414
414
412
410
409
405
399
394
388
380
373
368
361
356
352
350
347
346
345
344
343
343
341
342
344
346
347
349
350
349
349
349
350
350
349
349
350
349
349
350
349
350
351
352
355
356
356
358
359
361
363
364
360
355
350
348
348
348
348
347
347
349
360
382
398
406
412
400
323
230
190
212
254
283
303
316
332
349
366
374
377
379
378
380
383
384
384
386
388
390
392
392
395
396
397
398
399
401
401
400
401
402
402
400
399
397
394
390
386
381
376
370
365
362
357
354
350
349
348
347
346
346
344
345
346
346
345
348
348
351
352
353
352
351
352
352
351
351
352
352
351
351
353
356
357
357
356
358
359
360
360
360
357
353
349
345
345
346
347
348
347
348
360
383
402
409
414
409
337
239
194
210
251
282
305
317
328
344
360
371
373
375
377
378
378
380
382
385
386
387
388
388
391
392
393
395
396
397
397
399
398
397
397
396
395
391
388
384
380
374
369
365
360
355
352
350
348
345
345
345
345
342
342
343
344
344
344
345
346
347
348
348
349
349
350
351
351
353
353
352
351
353
355
359
358
357
357
359
359
360
360
358
355
349
346
345
347
347
346
347
350
362
384
400
407
412
403
328
234
195
217
258
288
308
318
329
346
361
370
373
374
375
376
378
379
381
383
385
386
386
387
389
390
391
393
393
394
396
397
397
397
397
395
394
391
385
382
377
372
368
364
358
356
352
351
349
346
346
344
344
343
342
343
343
344
343
343
346
347
347
348
350
350
349
350
351
351
351
351
354
357
357
357
358
358
359
361
362
359
354
350
347
346
347
347
346
346
348
359
379
393
398
400
382
295
206
188
222
261
291
311
321
338
356
369
374
376
377
378
381
381
306
320

375
378
380
382
384
386
389
392
394
397
399
402
404
405
405
407
409
408
407
407
407
405
402
399
394
386
381
375
369
363
360
355
351
348
347
346
344
343
343
344
343
344
344
345
344
346
346
346
348
348
347
348
349
350
350
350
351
351
351
352
355
356
359
362
360
361
362
364
360
355
352
348
345
344
346
347
347
348
357
379
394
399
399
378
292
205
188
219
257
289
309
324
343
362
371
376
377
377
379
381
383
385
387
390
392
392
393
396
397
399
400
403
405
407
408
409
408
407
407
407
405
401
398
392
386
379
373
364
358
399
399
900
387
383
377
373
368
365
361
357
354
351
349
347
346
346
346
345
345
345
345
344
345
347
348
349
348
350
350
351
352
352
353
355
355
354
357
360
361
359
359
360
361
361
361
361
358
354
350
349
348
347
347
347
349
355
373
391
399
403
402
347
249
194
206
247
281
307
319
328
344
360
369
372
374
377
378
379
381
382
384
385
387
389
390
392
395
397
398
399
401
402
402
402
402
401
400
399
397
393
388
382
376
371
366
361
356
352
349
348
347
346
346
345
344
344
344
345
344
346
347
345
345
347
347
347
347
348
348
349
350
351
349
352

359
355
349
347
345
344
342
341
341
342
344
351
369
387
396
404
400
335
244
203
212
244
278
301
314
331
352
366
371
374
374
376
379
381
382
384
387
391
392
393
395
397
398
400
403
406
408
409
410
409
409
408
408
406
405
402
397
391
384
377
371
365
358
354
350
348
345
344
343
342
343
342
342
343
344
344
343
343
344
344
345
346
346
345
346
348
348
346
347
348
347
348
348
349
348
348
349
350
352
352
354
353
355
358
359
356
352
348
344
344
345
345
344
344
344
347
364
385
399
407
411
384
295
212
197
229
267
295
311
319
357
355
346
347
347
347
351
369
390
401
407
409
373
279
205
199
234
270
296
313
320
336
351
364
368
371
372
374
376
377
378
380
380
381
384
386
389
390
392
394
396
396
397
398
398
398
398
397
396
394
389
384
379
374
369
364
359
356
352
349
346
345
344
344
344
343
341
341
341
341
341
340
341
343
343
345
346
347
348
349
348
349
349
348
350
351
350
350
352
354
356
356
356
356
357
358
359
358
356
351
349
347
345
345
346
345
346
347
360
383
400
405
405
381
288
204
195
231
267
293
311
326
343
360
371
374
376
377
378
380
381
384
376
387
389
391
392
395
396
400
400
402
405
408
409
411
412
413
414
413
413
411
408
404
399
391
384
377
369
364
359
354
350
347
345
343
342
341
341
340
339
340
341
341
343
343
344
344
345
345
345
345
345
346
347
348
348
348
349
348
348
348
348
348
348
348
350
353
354
355
355
356
357
359
358
354
349
346
345
344
343
343
343
344
346
357
380
396
403
409
388
299
216
201
226
256
284
306
323
342
361
371
374
376
377
379
381
381
384
386
386
388
391
394
395
398
400
402
404
406
408
410
411
412
413
411
411
409
406
402
396
389
383
352
35
344
343
343
342
342
343
344
345
345
346
346
346
348
349
348
348
349
348
349
349
348
349
349
350
350
348
351
352
354
354
354
355
358
359
360
359
356
352
348
345
345
346
347
346
345
347
359
382
399
406
412
409
347
255
207
215
254
285
306
316
326
342
358
368
372
375
375
376
378
379
380
382
385
386
387
389
389
389
392
392
396
397
399
399
400
400
399
397
395
393
389
386
382
375
369
365
361
357
354
352
350
347
346
345
344
344
345
345
345
344
345
347
347
347
347
347
348
349
350
350
350
350
350
350
350
352
352
354
356
358
358
387
382
349
346
345
344
343
341
342
341
342
341
343
343
342
342
343
342
344
343
343
343
344
346
345
346
347
348
347
348
348
350
353
354
355
357
355
356
357
357
354
350
347
345
343
342
343
343
343
343
354
377
393
399
399
372
284
200
188
224
261
289
310
326
343
361
370
375
375
377
379
381
382
384
386
388
391
393
395
396
399
402
404
405
407
409
411
412
412
413
411
410
408
405
400
394
386
378
371
366
361
354
350
347
345
344
342
341
340
341
342
343
343
343
344
343
343
344
345
346
347
348
349
348
348
350
348
348
350
350
350
351
346
346

351
352
351
350
350
350
350
350
352
356
354
352
353
354
355
357
358
355
351
346
344
345
344
343
343
344
345
355
376
395
405
412
411
351
254
197
206
245
277
299
310
322
339
356
367
369
370
372
376
376
377
379
381
383
383
385
388
390
391
392
395
395
396
397
399
398
397
397
397
393
392
388
386
381
374
371
366
362
359
355
352
351
349
348
346
344
344
344
343
344
344
344
346
346
347
348
347
348
347
349
350
350
350
349
349
350
351
350
349
351
354
356
355
353
353
355
357
358
358
357
353
347
345
345
344
344
344
344
345
355

380
382
38
389
391
393
395
398
400
401
404
406
408
409
410
412
413
412
411
410
408
405
400
394
386
379
372
365
358
354
351
348
347
346
345
344
343
343
343
343
343
343
342
343
343
343
343
343
345
345
345
346
347
347
347
347
348
348
347
348
348
348
349
353
354
355
357
356
356
357
359
357
353
350
348
345
344
344
345
343
344
346
358
381
397
404
407
376
283
206
197
228
265
292
311
328
346
364
372
376
377
379
380
382
385
387
388
389
390
393
396
398
400
403
404
406
410
411
412
415
415
415
414
413
412
407
403
397
389
380
374
368
362
399
396
369
364
360
356
354
350
348
346
346
346
344
343
344
345
344
345
346
345
346
348
348
347
347
350
350
349
349
348
347
348
349
351
351
351
351
352
351
351
354
353
355
356
353
354
357
358
359
361
358
355
352
349
347
347
348
350
348
347
354
373
396
407
412
417
385
297
219
205
236
273
298
313
322
335
351
367
373
374
375
377
378
381
382
382
384
387
388
389
389
391
392
394
397
398
399
401
400
400
398
396
395
393
390
385
380
376
372
367
362
356
353
352
350
348
348
346
345
344
344
343
341
342
343
344
345
345
346
345
345
346
347
362
388
40
203
235
267
292
310
330
349
366
371
374
376
377
379
380
382
384
386
388
390
392
395
398
401
402
406
407
410
411
413
414
415
415
415
413
411
407
402
396
389
382
375
368
362
355
350
348
346
344
342
340
340
339
338
338
339
338
337
337
339
340
342
342
341
341
343
346
346
346
347
348
347
348
348
346
347
347
347
349
349
351
353
352
351
354
354
356
359
357
353
349
346
345
345
346
346
346
346
347
357
378
397
405
410
405
336
242
199
213
251
280
301
314
328
346
363
372
375
375
377
379
381
383
384
385
387
390
391
393
394
396
5
359
355

343
343
343
342
345
345
345
344
345
345
345
345
347
348
349
349
350
350
349
350
351
351
351
352
353
354
355
359
359
359
359
360
360
360
359
357
353
349
347
346
346
347
347
345
347
354
374
394
402
403
400
335
234
189
210
249
279
303
316
332
349
364
371
373
375
376
379
380
381
384
387
388
390
392
395
396
398
400
401
404
406
408
410
409
410
409
408
405
403
398
392
386
379
371
366
361
354
351
349
345
344
343
342
341
342
342
342
342
342
341
343
344
345
345
345
347
348
347
347
348
348
347
348
348
347
349
350
350
350
353
355
347
34
395
405
410
411
358
265
208
211
245
275
297
311
323
340
357
368
372
374
376
377
379
380
383
384
385
388
389
390
391
394
396
397
399
401
402
402
403
404
403
403
401
399
395
392
387
382
376
370
366
360
355
352
350
347
345
344
344
343
343
343
343
343
344
344
343
344
346
347
349
349
349
350
350
350
349
349
349
350
350
350
351
351
351
350
350
351
351
350
350
351
353
353
354
354
355
358
359
359
358
355
351
347
346
349
348
348
348
347
348
360
384
403
411
416
413
348
256
210
221
257
284
306
317
326
342
360
370
374
376
378
377
345
349
349
349
351
352
355
355
356
356
358
359
359
357
353
350
347
346
345
345
346
346
345
347
362
386
401
405
404
366
265
192
196
235
269
291
311
327
345
362
369
373
375
376
377
380
382
384
385
386
388
390
393
396
398
400
402
406
407
408
410
411
412
412
411
410
408
404
398
391
384
377
371
365
359
354
350
346
344
343
341
342
341
341
341
342
343
343
343
342
342
341
343
345
345
344
345
346
347
347
345
346
346
348
349
349
348
348
350
351
351
354
356
356
358
359
359
361
362
361
357
351
348
347
345
345
347
346
345
346
352
372
348
347
34
349
349
348
346
345
345
346
347
348
351
351
351
352
355
356
356
354
351
346
344
345
344
345
344
345
345
347
362
387
402
407
412
402
332
243
208
224
261
286
303
312
324
340
355
365
368
369
371
374
373
374
376
379
381
381
382
385
387
388
389
391
393
393
394
397
396
397
397
396
392
389
386
381
374
369
365
361
357
354
350
346
346
344
342
342
341
341
341
341
340
341
339
341
341
342
343
343
345
345
345
346
346
347
349
348
348
348
349
349
349
350
349
346
349
352
354
355
353
352
354
355
356
357
355
352
347
345
344
345
346
346
348

349
350
352
355
356
355
357
357
358
359
359
356
351
347
346
344
343
342
342
343
344
351
373
396
404
405
398
327
228
189
215
256
285
306
320
336
355
367
372
374
375
377
379
381
383
384
386
387
390
394
396
398
400
402
405
407
410
411
412
412
413
412
411
411
408
403
397
389
381
374
367
361
355
351
348
347
343
341
341
341
341
340
340
341
341
341
343
343
344
344
344
344
345
345
346
346
345
346
346
346
347
348
347
347
349
350
350
351
352
354
355
359
359
358
360
363
360
356
352
350
347
347
350
350
348
347
349
361
385
401
348
350
354
355
355
357
356
356
358
357
356
352
348
348
347
346
346
348
348
349
355
374
395
406
412
416
379
289
218
210
243
277
299
313
321
335
351
365
370
372
375
376
377
379
381
382
383
385
387
389
390
390
392
395
397
398
400
400
400
401
400
399
398
396
393
389
384
379
374
371
366
361
356
354
352
349
348
348
346
346
346
347
345
345
346
345
345
346
347
347
347
348
349
350
349
349
350
351
352
352
352
352
353
353
353
353
353
354
356
356
355
355
357
359
360
361
359
355
352
349
347
347
347
348
348
349
350
362
384
402
410
414
52
351
357
359
359
360
356
351
349
347
346
346
347
347
346
347
351
370
395
407
409
403
347
242
187
204
243
275
298
314
333
351
366
372
375
377
378
380
381
383
385
387
389
392
393
395
396
398
399
401
404
407
409
410
411
413
412
411
410
409
404
398
391
385
378
371
365
358
353
350
345
343
343
343
342
342
341
341
343
342
342
342
343
341
342
342
342
343
346
347
347
346
346
346
346
347
346
347
346
346
347
347
345
348
350
352
352
353
355
355
357
359
359
355
352
349
345
343
344
344
344
344
345
351
369
390
400
405
406
354
258
204
213
374
376
386
389
391
393
393
396
397
396
399
400
400
400
401
399
396
394
389
383
378
373
369
363
360
356
352
349
346
345
345
344
344
343
344
344
343
343
344
342
344
345
346
347
347
347
347
348
348
349
348
350
350
351
350
351
351
352
353
355
355
355
357
358
356
357
357
356
353
350
347
345
344
346
345
346
346
349
366
387
399
403
406
378
286
206
199
234
268
291
310
321
334
349
363
370
372
373
376
377
379
380
381
383
385
388
389
390
391
393
396
397
399
400
400
400
400
400
399
397
396
393
387
381
377
372
366
362
357
353
351
349
3
349
349
352
359
359
357
352
348
346
344
344
345
344
345
346
351
367
387
396
401
402
356
262
202
208
240
269
295
310
327
345
363
371
375
377
378
380
382
384
385
385
389
391
393
394
396
398
401
402
404
407
408
409
411
411
410
408
407
404
402
398
393
386
380
373
368
362
358
353
350
347
346
345
345
345
344
343
343
342
342
342
342
343
343
344
345
345
348
347
346
348
349
348
348
349
349
348
349
350
349
350
352
353
352
352
354
355
356
358
357
355
351
347
345
345
345
345
345
345
345
354
376
396
405
409
407
350
255
200
207
245
276
299
313
339
339
334
346
347
348
349
349
351
351
351
352
355
358
358
358
360
360
361
362
360
356
352
349
347
347
347
347
348
348
355
374
392
399
398
389
316
220
187
214
256
287
307
322
337
354
369
373
376
377
379
380
381
382
383
386
388
391
393
394
396
399
401
403
405
406
407
408
409
409
408
407
406
403
398
393
385
378
372
366
361
356
352
348
345
345
345
343
343
341
341
343
342
343
344
344
