8
405
406
406
407
406
405
403
401
396
390
385
378
372
365
360
355
351
348
345
345
344
342
341
341
341
341
340
341
340
342
342
343
342
343
344
345
346
344
345
346
347
347
347
347
346
348
347
347
349
349
348
350
352
354
353
354
354
355
357
358
356
352
348
347
345
344
343
345
345
344
349
371
398
412
409
403
352
250
200
214
248
274
293
309
328
348
363
370
374
375
377
380
381
382
383
386
388
389
391
394
396
397
399
401
404
406
408
410
411
411
410
409
406
403
398
392
385
379
371
364
357
353
348
345
344
342
342
342
342
342
342
341
341
341
340
341
343
343
343
343
344
344
344
346
347
347
348
348
347
348
348
347
348
348
349
349
348
349
349
351
353
355
354
355
355
359
361
362
360
353
350
348
346
346
345
345
345
346
351
372
399
412
411
405
353
253
202
213
245
272
293
310
330
352
366
372
375
376
378
379
381
385
385
386
387
390
393
394
398
400
400
402
405
406
408
411
413
414
413
411
412
409
403
397
389
382
374
369
362
357
353
350
347
344
343
342
340
340
340
340
340
339
340
341
342
342
342
344
345
345
345
345
344
346
347
346
347
347
346
347
347
347
346
348
348
348
347
348
351
353
353
354
355
357
358
360
359
354
350
348
346
346
346
345
345
345
347
360
385
403
408
409
394
311
226
206
230
262
285
304
318
337
356
369
375
376
377
380
380
381
383
385
386
388
389
392
394
395
398
400
402
403
405
406
407
407
407
406
405
403
400
395
389
384
375
370
363
359
354
350
346
344
343
341
341
340
340
339
339
339
339
341
341
342
343
344
345
346
346
346
346
347
346
348
348
348
349
349
349
349
351
350
350
350
349
349
352
352
355
354
355
354
357
359
360
359
357
351
350
350
349
349
347
347
347
351
371
397
410
414
414
385
294
218
213
246
276
296
311
321
339
357
368
373
377
378
379
380
383
383
385
386
389
391
392
395
399
400
398
400
402
403
404
404
404
403
401
400
397
394
389
384
379
373
367
363
358
354
351
349
347
345
344
343
344
344
343
344
344
345
344
344
345
347
347
346
347
347
349
349
348
350
351
350
350
349
349
350
351
350
351
349
348
351
353
354
354
356
357
358
360
361
361
358
354
349
348
347
347
348
347
346
350
362
386
404
410
412
408
348
257
212
226
262
285
304
315
327
344
360
370
374
376
376
378
382
380
381
383
384
385
387
388
389
392
394
397
398
400
400
401
402
403
401
400
397
393
390
385
379
374
370
365
359
355
351
348
347
346
346
346
344
344
343
343
343
344
343
343
344
344
344
347
347
346
348
350
349
348
350
350
350
349
349
350
351
350
350
353
354
354
354
355
356
358
358
358
357
353
348
346
346
347
346
347
347
347
354
378
399
407
409
405
346
248
202
221
256
281
301
313
327
343
360
368
371
372
374
376
377
379
381
383
384
385
388
388
389
392
394
396
399
400
400
402
403
402
401
399
396
392
389
384
376
370
365
359
355
352
350
347
345
343
343
342
343
342
343
343
342
342
343
342
343
344
345
343
345
346
345
346
346
348
349
348
350
349
350
350
349
350
351
354
357
356
358
359
358
360
361
359
356
351
348
346
345
344
345
346
346
349
369
395
407
410
408
367
266
201
209
245
275
295
311
327
346
364
373
375
376
379
380
381
384
386
387
388
390
392
394
396
398
399
401
405
407
408
409
410
411
409
406
406
403
398
392
385
377
370
365
359
354
351
348
346
344
343
342
342
341
341
341
340
340
341
341
342
343
344
345
346
347
347
347
346
349
348
348
348
347
348
348
348
349
350
350
351
353
354
354
356
355
357
358
358
356
351
347
344
344
344
343
344
344
344
352
377
400
409
406
397
327
232
199
219
253
278
296
314
335
354
367
371
374
376
378
379
381
382
383
386
389
389
392
395
397
398
401
403
405
408
409
409
410
411
409
409
407
404
398
390
383
376
370
362
357
353
350
345
344
342
341
342
342
341
342
342
342
342
342
343
342
342
341
342
344
345
346
346
345
345
346
347
347
348
349
347
348
349
349
350
351
353
354
355
357
357
359
359
360
358
353
347
345
344
343
343
344
344
345
352
373
397
405
406
399
331
234
198
216
249
277
299
315
335
356
370
374
378
379
380
383
384
386
386
389
390
392
396
397
400
402
403
406
408
411
412
412
413
414
412
410
409
407
401
393
386
380
372
365
360
354
350
346
345
342
341
339
340
339
339
340
340
341
342
341
342
343
344
343
344
344
345
346
346
348
347
347
348
348
349
349
349
348
349
348
348
351
354
353
353
354
355
356
358
359
358
353
350
347
344
345
344
344
344
345
348
362
386
401
408
410
386
298
217
202
231
261
283
302
319
339
358
369
374
375
377
380
380
383
385
387
390
389
390
393
396
396
399
401
401
404
406
408
407
408
407
406
406
404
401
396
389
382
377
371
365
359
356
353
350
347
346
344
343
343
342
342
341
342
342
343
344
343
343
345
347
348
347
347
348
346
348
349
349
349
349
349
348
349
349
348
349
352
353
353
352
354
356
359
358
358
356
350
347
345
344
344
344
345
345
348
363
386
403
412
415
400
318
228
199
224
262
289
308
315
331
350
365
373
375
375
377
380
380
380
383
385
385
387
389
392
394
395
398
398
399
400
402
404
403
401
402
400
397
394
391
384
378
373
368
364
359
354
352
349
347
346
344
343
343
343
343
341
342
342
343
342
344
344
344
345
347
348
348
348
348
349
350
349
351
350
350
351
351
351
353
356
356
356
357
357
358
360
360
358
354
350
345
345
346
346
346
347
346
354
374
395
406
412
413
367
272
208
209
244
277
300
312
322
339
356
368
371
374
376
377
380
382
383
383
385
385
387
389
390
390
395
398
399
399
401
402
401
401
400
399
398
394
392
386
380
376
372
365
360
356
352
349
349
346
345
344
344
343
342
342
343
344
343
342
344
346
345
346
346
346
347
349
349
348
350
351
350
350
350
351
355
359
358
358
358
359
360
361
361
358
354
350
347
347
345
346
346
346
349
362
385
400
406
407
396
315
225
200
228
265
289
308
318
332
349
365
371
374
376
376
378
381
383
384
384
386
387
387
390
391
393
396
397
398
399
400
400
401
400
399
397
395
391
384
381
375
370
364
360
354
351
348
346
345
346
344
344
342
342
343
343
343
343
343
344
343
344
344
344
346
347
348
349
348
349
349
349
350
350
352
352
354
357
355
357
359
360
359
361
360
356
353
349
346
347
345
345
346
347
351
370
392
401
401
400
341
244
201
217
253
281
301
313
330
348
364
370
373
375
378
380
380
382
384
386
388
389
391
392
395
396
399
401
402
404
405
408
408
408
407
405
402
399
394
386
380
374
367
360
356
351
348
346
344
343
341
340
340
340
340
340
339
339
340
340
341
340
342
343
343
345
345
345
402
347
345
343
341
342
342
341
340
340
341
341
340
341
341
342
342
344
343
344
344
345
345
346
347
348
348
348
348
348
350
349
349
349
349
349
351
354
354
354
354
355
358
360
361
356
352
348
346
346
346
346
346
347
347
355
377
397
405
407
399
328
237
205
222
254
280
302
317
336
354
369
375
376
379
381
381
382
384
386
387
391
392
395
396
398
400
402
403
405
406
409
410
409
410
408
409
406
403
397
391
385
379
372
364
359
355
351
348
345
342
343
343
342
340
340
342
341
341
341
340
341
341
342
345
347
346
345
346
346
346
3
347
346
350
366
389
405
410
410
392
307
220
204
235
270
292
310
321
336
355
368
373
375
377
379
381
382
383
384
386
387
387
391
390
393
395
396
397
400
400
401
402
403
402
400
399
395
391
386
381
375
370
364
359
355
350
346
345
345
343
343
343
343
342
343
343
342
342
341
341
343
344
343
343
344
344
345
345
345
347
347
347
348
348
349
350
350
350
350
353
355
355
357
356
356
359
360
359
356
351
347
347
348
347
346
346
346
349
368
393
405
407
406
363
263
205
213
247
275
297
313
330
347
363
371
374
374
376
377
380
383
384
386
358
346
346

348
349
349
349
349
350
350
352
354
356
357
357
359
359
360
359
356
350
346
345
346
345
345
346
345
346
357
383
398
404
407
385
298
217
205
229
259
284
304
322
341
362
371
374
376
377
378
382
383
384
386
390
391
393
395
397
399
401
402
405
409
410
411
414
413
413
412
411
409
406
400
392
386
379
372
365
360
354
350
347
345
342
342
342
340
341
341
340
341
342
341
343
344
343
343
344
345
346
346
346
346
347
347
348
348
347
348
348
347
347
347
348
347
346
349
350
352
353
355
355
357
359
359
357
352
348
346
344
345
349
353
351
352
355
359
357
356
358
358
360
361
361
358
354
351
348
345
346
347
346
347
348
357
379
400
408
412
410
352
257
207
218
255
284
304
315
324
342
359
370
374
374
375
377
379
380
382
383
384
385
388
390
391
393
395
397
399
400
402
403
404
404
404
402
399
396
392
386
380
375
370
363
359
356
352
350
349
347
345
345
345
343
342
341
341
342
342
343
343
343
343
345
346
346
346
347
347
347
347
348
349
349
350
350
350
349
352
354
355
355
357
355
356
357
357
356
353
349
346
344
344
344
344
345
346
349
366
389
400
404
295
310

379
381
383
384
385
388
390
393
395
399
401
403
405
407
409
409
409
412
412
411
411
409
407
402
397
390
383
376
369
363
355
351
348
346
345
344
344
342
341
340
340
340
340
342
342
343
342
342
344
344
344
346
345
346
347
348
348
347
348
348
348
348
348
348
348
348
348
348
347
349
352
353
352
355
354
356
359
360
356
351
349
346
345
345
345
345
345
346
352
373
394
405
411
412
365
268
203
207
244
274
296
310
323
343
361
372
375
377
379
379
380
383
385
387
389
390
391
394
395
396
398
400
401
402
403
405
406
406
406
404
403
401
47
344
342
341
342
341
341
342
342
341
341
340
340
340
341
341
342
342
344
345
346
344
346
347
346
347
347
346
347
348
348
348
347
348
350
353
353
353
354
354
356
357
358
354
352
350
346
346
346
346
345
346
346
354
378
399
406
406
396
319
230
205
229
262
286
304
319
337
355
370
375
376
377
379
380
381
383
384
386
388
389
391
393
396
397
400
403
405
407
409
410
411
410
410
409
405
401
396
389
381
375
368
362
357
352
349
346
343
342
341
341
341
341
340
340
340
341
342
341
341
342
343
344
345
345
345
346
346
346
346
347
354
355
458
347
348
349
348
348
350
362
385
403
411
416
410
342
249
211
227
262
288
307
315
327
345
361
370
374
376
376
377
380
381
381
383
387
388
391
392
392
393
396
396
398
400
401
402
402
403
404
402
398
396
392
387
382
376
371
365
361
357
353
350
347
345
344
343
344
344
344
343
345
343
342
343
346
345
345
346
347
346
347
349
348
349
350
350
350
349
349
349
351
351
351
351
350
350
350
353
355
356
354
355
356
359
360
360
359
356
352
348
346
347
346
345
347
347
350
369
394
408
415
418
386
294
219
213
243
274
296
310
320
336

415
372
365
359
354
351
348
346
342
341
342
341
339
340
341
339
339
339
340
341
342
341
341
343
344
344
346
346
347
348
347
348
350
350
349
347
348
349
349
351
349
350
352
352
352
353
355
355
357
358
360
356
353
349
345
343
343
347
347
346
346
353
373
397
408
412
412
358
260
202
211
247
276
298
311
324
343
361
371
375
374
375
378
381
381
381
384
386
389
391
392
393
395
397
399
399
400
402
405
405
405
404
405
403
400
396
392
385
380
374
368
363
357
355
351
347
346
346
344
343
343
343
342
343
344
345
344
345
345
344
344
3
381
382
399
400
403
403
403
404
403
400
398
395
390
385
379
371
366
360
356
351
348
346
344
342
342
341
340
340
341
342
341
342
341
342
341
342
342
342
344
346
346
345
345
347
348
349
349
349
349
350
353
355
357
358
360
361
361
361
357
353
349
346
344
345
345
344
344
347
360
382
396
399
396
367
275
204
204
238
271
294
309
324
341
359
369
373
374
375
377
380
381
383
384
386
388
390
393
394
397
400
401
402
404
406
408
410
411
409
409
407
404
401
394
387
379
372
367
361
355
351
348
345
343
341
342
341
340
340
341
340
340
341
345
346
14
351
350
351
352
352
353
355
354
355
357
359
359
359
357
353
349
347
346
346
346
345
344
348
360
382
400
411
417
409
333
238
202
223
262
290
308
318
332
349
365
372
376
377
378
381
383
383
385
386
388
390
392
393
395
397
397
398
401
402
403
403
404
404
404
402
399
397
393
387
381
377
370
365
360
355
355
352
349
349
349
347
345
345
345
345
345
344
344
345
345
345
345
347
349
348
348
349
351
352
351
350
350
350
350
351
352
351
351
354
356
356
355
354
354
357
358
359
356
354
350
349
347
346
347
347
347
348
354
375
396
356
341
340
341
341
341
342
343
344
343
343
344
345
345
345
345
345
346
348
347
348
348
349
350
350
352
354
355
357
359
359
361
362
361
357
354
350
346
346
347
347
345
346
347
362
387
402
405
406
377
284
216
214
242
272
294
309
326
344
361
370
374
376
377
379
381
382
385
388
388
390
392
394
396
399
402
404
406
408
411
412
413
413
414
412
409
407
403
396
390
383
374
368
363
357
353
350
347
346
345
343
341
342
341
341
342
343
342
342
344
344
343
343
343
344
344
345
344
344
345
347
347
347
346
346
346
346
348
348
348
350
359
350
349

356
358
356
357
358
358
360
361
360
356
352
347
347
347
347
346
347
347
350
367
392
406
410
410
388
302
221
211
243
277
299
315
324
338
352
365
372
373
375
376
377
379
380
383
386
386
388
389
390
391
392
393
395
397
398
399
401
402
401
399
399
396
392
388
382
376
370
364
360
355
351
349
347
344
343
343
343
341
342
342
341
342
342
342
342
344
343
343
345
345
345
346
347
348
348
349
349
350
352
350
350
352
353
354
356
354
355
356
358
357
359
357
353
348
346
346
345
345
346
345
345
350
371
394
403
404
403
352
254
357
344
345
345
345
346
353
376
399
408
407
399
327
237
207
226
255
281
300
317
338
357
368
373
376
376
377
380
383
385
388
388
388
391
393
396
400
402
402
405
408
410
410
411
412
413
414
412
410
408
402
395
390
381
375
368
362
358
353
349
344
343
341
339
338
340
339
339
339
339
340
341
341
340
342
343
343
345
345
344
347
347
346
345
346
347
347
346
346
346
347
345
347
350
351
350
351
353
354
356
357
358
354
350
346
345
343
343
344
344
344
345
352
374
395
404
405
403
351
256
200
210
247
273
294
308
323
342
360
369
372
3
347
349
0
350
350
351
353
358
357
356
358
359
359
361
361
360
356
351
348
347
347
347
347
347
348
354
374
395
406
411
411
374
283
214
208
240
276
301
314
321
336
352
366
372
374
374
375
376
380
382
383
384
384
386
388
389
390
393
396
397
398
400
399
400
400
400
399
398
395
392
388
382
376
371
367
361
357
354
351
349
347
346
346
345
344
344
345
344
344
344
344
344
344
345
346
347
347
347
347
347
349
349
350
351
351
353
356
357
357
357
359
360
360
360
358
355
351
347
346
346
345
346
345
345
350
368
388
399
401
400
364
270
202
354
344
344
345
345
344
348
365
386
397
399
400
357
259
201
206
238
271
297
314
331
350
366
373
375
376
378
381
383
384
386
388
389
391
394
396
398
400
402
406
407
408
410
410
412
412
412
410
410
408
402
396
391
384
376
369
363
357
352
349
345
343
342
341
342
342
341
341
342
342
342
343
343
343
345
345
345
346
346
345
345
346
346
346
347
348
348
349
352
353
355
355
356
359
361
360
359
354
349
347
345
345
344
345
345
346
349
365
388
399
404
408
368
271
206
207
240
269
293
310
324
344
362
370
373
374
375
376
378
380
382
38
358
