394
395
394
394
394
393
390
387
384
378
371
367
359
353
347
342
337
334
331
329
327
325
324
325
323
322
322
322
324
322
322
323
323
324
326
325
325
326
326
326
326
326
326
326
325
325
327
326
327
329
330
331
330
333
331
332
333
334
330
327
323
320
319
319
321
320
320
320
330
355
378
389
394
386
309
214
181
195
226
253
271
286
306
325
340
347
349
352
353
354
357
358
358
361
364
364
367
371
373
374
377
379
381
383
384
385
386
386
386
384
381
378
373
368
361
354
348
342
337
332
327
325
323
321
321
321
321
320
319
320
320
320
320
320
322
324
325
326
327
327
328
329
329
330
329
331
331
332
333
332
333
335
335
337
339
342
342
343
343
344
345
346
344
340
337
336
335
335
335
334
334
334
338
356
384
401
409
408
360
262
207
207
233
263
285
303
322
343
361
368
370
373
375
376
378
381
384
387
388
391
393
395
399
401
403
406
407
410
410
412
414
415
415
414
414
412
407
401
395
388
381
374
368
361
356
353
350
350
348
345
346
345
346
347
346
345
346
348
349
349
350
351
351
350
352
353
353
354
355
356
355
355
356
356
356
357
357
357
358
359
361
362
364
364
364
366
367
368
365
360
357
354
353
355
355
354
355
354
359
381
404
418
426
429
374
278
226
226
252
280
303
319
338
358
374
382
384
386
387
389
392
395
397
400
402
403
405
406
408
411
412
414
415
417
421
421
424
424
424
422
422
420
415
409
403
397
390
382
376
370
365
361
359
356
355
353
352
351
352
351
352
352
353
354
354
355
356
357
356
356
357
357
357
357
358
356
357
357
358
357
358
359
359
358
358
360
361
363
365
364
366
367
368
370
371
367
363
359
358
356
356
356
357
357
357
366
390
412
422
429
430
373
277
221
226
261
287
310
324
337
354
372
384
387
387
388
390
392
394
396
396
398
400
403
404
405
407
410
413
413
414
415
416
417
416
415
415
412
409
405
401
395
389
382
378
371
365
361
359
356
355
354
352
351
351
350
352
351
350
350
350
352
351
352
354
355
355
356
355
355
354
354
353
355
356
355
355
354
354
354
354
353
355
358
359
358
360
360
360
361
363
362
358
354
352
350
350
351
352
352
352
355
371
393
410
420
427
411
327
239
216
237
269
292
312
323
337
356
369
374
375
378
380
381
383
385
386
387
388
389
391
393
396
399
399
401
402
402
405
405
405
404
402
401
398
396
392
386
381
375
370
366
360
357
354
351
349
348
347
346
345
345
345
344
344
345
345
346
347
347
347
349
350
350
351
351
351
352
353
352
353
352
352
352
352
350
352
352
355
358
357
355
355
357
358
358
360
356
352
349
347
348
348
347
349
350
350
360
386
407
414
418
414
339
240
206
225
258
286
308
320
333
349
365
373
375
377
379
380
383
384
386
389
390
391
392
393
395
397
398
401
403
404
404
405
406
405
404
403
400
397
392
387
381
377
370
365
361
357
353
351
347
346
344
343
343
342
342
341
342
343
343
343
343
344
345
345
346
346
347
348
349
349
349
349
350
349
349
349
349
349
349
351
353
354
353
354
354
355
357
358
355
352
348
345
344
344
345
345
345
346
350
370
397
411
418
423
377
275
208
209
241
272
297
312
326
342
359
370
373
374
375
377
380
383
384
386
387
389
391
393
395
395
397
400
401
403
406
407
406
407
406
405
403
401
396
390
384
378
371
366
361
356
353
349
345
343
341
341
341
340
340
340
339
340
340
340
340
342
342
343
343
343
344
345
346
346
347
346
346
347
347
347
348
348
347
346
348
348
349
349
352
352
352
353
356
357
357
356
354
349
346
344
345
345
344
343
343
344
357
384
406
416
422
410
327
237
212
227
256
281
298
314
333
353
367
371
373
375
376
378
381
384
385
388
389
392
394
395
396
399
401
403
405
408
409
411
411
410
409
408
404
401
397
391
383
375
369
364
358
352
349
347
344
342
341
340
340
340
339
340
338
338
340
341
341
342
342
342
343
344
343
344
345
346
345
346
347
346
346
345
347
346
347
347
348
347
347
348
352
353
353
355
355
356
359
359
355
350
347
346
344
344
345
345
344
343
348
368
395
411
418
418
366
271
220
218
242
271
292
309
329
349
365
371
374
376
378
379
382
384
387
389
390
392
395
397
400
401
404
406
407
410
412
413
414
415
414
414
412
409
404
398
391
384
376
369
363
358
352
348
345
344
342
340
340
340
339
339
339
340
341
340
341
342
344
344
342
343
344
345
345
347
347
346
345
346
346
346
346
346
346
346
348
347
347
349
351
352
352
354
354
355
357
357
353
350
347
345
345
344
343
343
345
345
351
370
394
410
420
422
363
269
220
219
243
272
294
310
330
350
365
372
374
375
377
379
382
383
386
388
389
391
393
395
397
400
403
405
407
410
411
412
414
414
412
412
409
406
402
398
391
383
376
368
362
356
351
348
345
343
342
341
339
339
339
339
339
338
339
339
340
342
343
343
343
344
344
345
346
347
347
347
348
348
347
347
348
348
347
348
349
347
348
350
351
351
352
354
355
357
358
359
357
352
348
346
348
347
347
348
348
347
352
373
397
410
418
422
378
282
215
213
244
273
295
310
324
342
358
369
373
375
376
378
381
383
385
387
387
388
391
392
395
398
400
402
403
405
407
407
409
378
380
403
404
405
403
403
402
400
396
393
387
381
374
368
363
356
352
349
347
344
341
340
340
339
338
338
337
339
340
340
341
341
342
341
341
343
346
346
345
345
345
346
347
347
346
346
345
346
346
347
347
347
347
349
352
352
352
354
356
355
356
358
356
352
348
345
345
345
345
345
346
345
349
370
397
413
420
423
377
276
211
212
241
270
293
308
325
342
360
368
371
374
376
377
380
382
385
387
388
390
393
396
398
398
400
402
404
406
407
408
407
409
410
407
405
402
399
394
387
380
374
367
361
356
352
349
345
344
343
341
341
56
259
382
383
384
385
389
391
392
392
394
396
398
401
402
403
404
405
406
407
406
405
404
400
395
391
386
381
374
368
362
357
353
351
346
345
346
344
342
342
342
342
340
341
342
343
344
345
345
346
347
347
348
348
347
349
349
350
352
351
349
349
350
350
350
349
350
353
355
354
354
357
358
359
360
359
358
354
349
347
347
346
346
346
348
348
356
378
399
411
419
423
369
270
207
211
245
277
303
316
326
342
360
371
374
375
378
380
381
383
384
386
388
389
389
391
394
395
397
399
400
402
403
404
405
406
404
404
401
399
394
389
347
343

341
340
341
340
340
342
344
344
344
345
345
344
344
345
346
346
346
347
347
346
347
348
346
346
346
345
346
346
348
349
352
353
355
354
355
357
358
358
354
350
347
345
344
344
345
344
344
346
358
381
400
415
426
407
324
243
220
229
255
281
301
320
341
361
372
374
377
378
381
384
385
386
388
392
393
395
398
401
401
403
406
409
411
413
415
417
418
418
419
416
414
409
404
399
392
385
377
369
362
357
351
347
345
342
339
339
339
339
338
337
337
338
338
337
338
337
337
340
340
339
338
339
338
338
340
339
338
338
338
336
409
411
418
430
431
433
434
435
436
436
435
434
430
428
422
416
411
406
399
393
389
387
383
380
378
377
377
377
376
376
376
375
376
377
377
377
378
379
381
380
380
382
382
382
383
383
384
383
384
384
384
384
384
384
385
386
385
385
386
388
388
389
389
390
390
389
389
386
382
377
375
376
375
373
373
373
374
389
415
431
442
448
419
322
240
229
258
289
315
333
346
364
384
395
399
402
403
406
407
410
412
413
415
418
419
421
425
426
429
432
434
436
437
439
438
439
439
438
438
435
432
427
421
415
408
402
396
390
385
382
380
377
375
3
355
355
8
376
405
422
431
434
383
285
230
227
249
277
300
320
339
359
374
380
383
384
385
388
391
392
394
397
398
401
404
404
405
410
411
413
416
418
421
421
422
422
421
420
418
416
413
408
402
395
387
379
372
364
358
353
349
347
345
345
345
343
343
344
342
343
344
345
344
344
346
345
346
347
348
347
347
348
349
349
349
349
349
349
350
350
349
349
350
349
349
348
348
348
349
349
350
350
351
353
353
353
354
357
358
359
361
361
358
353
350
348
347
347
347
349
348
349
357
377
400
413
423
427
374
276
216
216
245
272
295
309
326
343
311
322
388
391
392
393
394
396
398
401
402
404
404
406
407
406
406
407
405
403
400
395
389
384
377
370
366
361
356
352
350
348
346
345
344
342
342
341
342
342
343
343
343
344
346
346
346
346
348
348
348
350
350
350
350
349
351
351
350
350
351
351
351
352
354
355
356
355
355
358
358
358
358
358
354
349
347
346
347
347
346
346
347
352
374
396
408
414
413
350
248
197
210
245
275
300
316
329
344
361
370
373
374
375
379
380
382
383
385
386
388
392
393
393
397
398
400
404
404
405
406
407
408
407
406
402
399
395
390
384
377
370

295
294
293
287
284
283
283
281
279
278
275
273
272
272
270
269
269
269
269
268
269
267
265
265
265
262
256
251
247
245
243
241
241
239
237
238
252
275
291
301
308
266
171
105
97
118
149
175
192
211
230
246
251
254
254
255
258
261
261
262
263
265
267
270
271
274
277
279
281
284
286
287
290
292
291
292
293
292
289
285
281
276
269
262
256
249
243
239
236
233
231
231
230
230
231
231
232
233
233
234
236
238
239
240
242
244
246
248
250
251
253
254
257
259
260
261
263
264
266
269
270
270
271
273
275
276
279
280
283
285
287
290
293
295
416
41
430
431
434
437
438
438
439
441
443
445
447
447
449
448
447
444
441
438
435
429
423
416
409
402
399
393
388
384
382
380
378
378
378
377
376
376
375
375
375
376
375
375
376
376
376
376
376
375
375
375
375
377
376
375
376
376
376
376
377
376
376
378
379
379
379
381
380
381
382
382
378
373
370
369
368
367
366
366
368
369
379
400
419
432
441
424
336
242
214
236
271
303
324
335
350
368
382
386
388
390
392
394
394
397
399
400
400
402
405
408
409
410
412
413
415
416
418
420
421
420
419
419
416
412
407
402
396
388
382
375
346
346
343
355
356
357
356
354
350
347
345
344
345
345
347
346
346
355
377
398
410
422
423
353
254
204
214
248
279
302
313
325
343
361
372
376
377
380
382
382
385
387
389
389
390
394
395
396
400
401
403
404
407
408
409
409
410
410
409
409
405
400
395
390
384
377
370
365
359
354
351
351
348
344
344
344
344
343
343
343
344
345
343
343
344
345
346
346
345
347
348
348
349
350
350
350
350
351
351
350
352
351
352
352
352
352
354
356
357
356
358
359
360
360
360
360
356
351
350
349
350
350
351
350
351
362
383
402
414
423
416
340
243
2
339
341
347
347
347
347
349
348
347
348
348
347
347
348
349
348
347
350
352
353
353
355
354
355
358
360
357
352
349
347
345
344
345
345
345
346
349
370
394
411
422
419
354
260
216
221
244
273
296
315
334
353
366
372
376
377
378
381
383
386
388
390
393
395
397
400
403
404
407
409
411
414
416
417
417
417
417
417
415
413
409
405
398
391
383
375
368
362
356
352
348
347
345
342
342
342
341
341
342
341
341
341
341
343
343
343
343
343
344
345
345
345
346
346
347
347
348
347
346
347
347
347
348
348
346
346
347
348
348
349
352
352
345
345

400
411
420
398
308
219
196
222
259
287
307
318
333
348
364
371
374
376
379
379
380
381
384
385
387
390
390
393
395
397
400
402
403
404
406
407
407
406
406
404
402
399
396
389
383
378
373
366
361
355
349
346
347
345
342
341
342
343
343
342
342
341
342
342
342
342
342
343
343
344
345
347
346
346
348
348
348
349
348
349
350
349
351
353
356
355
356
356
357
357
357
357
355
351
348
346
346
346
347
346
346
347
360
382
397
408
417
393
300
213
196
223
259
290
310
321
336
354
368
374
377
378
380
382
383
384
385
388
391
395
1
341
342
44
344
345
344
343
344
345
347
345
346
346
347
348
348
348
349
350
349
351
352
355
356
355
356
356
357
358
358
354
350
346
344
345
346
345
345
345
348
362
383
399
410
413
362
268
212
212
239
272
298
315
333
351
367
373
377
377
379
382
384
385
388
390
391
394
395
398
401
403
405
406
408
411
413
414
415
415
416
416
415
413
407
400
394
385
378
371
365
358
353
349
346
343
341
340
340
340
340
340
339
339
341
340
340
343
344
344
343
342
343
345
347
347
346
346
347
346
347
347
346
346
346
348
349
351
352
353
353
354
356
357
35
349
349
34
356
357
358
358
354
351
347
346
345
344
345
345
346
347
356
380
400
412
424
419
343
247
201
212
249
282
304
315
328
346
363
369
372
374
376
380
380
382
385
385
387
389
389
392
394
396
396
399
401
403
403
406
408
409
407
405
403
400
395
391
385
379
374
367
362
358
355
352
350
347
346
345
344
343
343
342
342
343
344
342
343
344
345
345
346
346
345
346
348
348
348
348
348
348
350
350
350
350
349
349
351
352
354
354
354
354
355
356
356
357
354
353
351
346
346
348
347
346
346
346
355
377
398
409
418
415
346
248
199
212
48
349
347
345
344
344
343
344
344
344
351
372
395
409
418
415
344
251
212
219
249
278
299
314
333
352
367
371
373
376
377
378
380
382
384
386
389
392
393
395
397
400
402
404
407
410
411
413
414
414
414
414
413
410
405
399
391
383
375
367
361
355
351
347
344
341
339
337
337
339
338
338
340
338
338
339
339
339
340
340
341
342
342
342
343
344
344
344
345
346
346
346
345
345
346
348
347
346
348
348
348
347
348
351
351
351
352
353
355
357
360
358
354
351
348
345
344
346
345
346
347
350
361
385
406
419
430
409
321
241
219
232
2
348
348
1
251
202
220
254
282
304
318
331
348
362
370
373
376
378
380
383
384
385
386
387
389
392
392
394
396
398
399
401
404
406
408
409
410
410
409
406
404
401
394
386
380
374
368
361
355
350
347
346
344
343
341
340
341
341
341
340
341
340
340
341
342
341
340
341
343
343
344
345
345
345
346
347
347
346
346
347
346
347
346
348
348
349
349
349
352
354
355
354
354
354
356
357
358
357
354
350
347
346
346
346
346
347
346
349
364
391
408
417
425
398
302
216
204
231
264
290
308
321
338
356
368
371
372
374
376
379
381
382
385
387

361
72
374
376
378
378
381
383
384
389
390
392
395
398
399
401
404
405
407
408
408
408
406
403
399
393
386
378
372
364
357
350
344
340
336
335
332
330
329
330
329
328
328
327
327
328
329
329
329
331
332
333
333
333
333
334
334
336
337
335
334
334
336
336
336
337
336
336
336
337
336
334
334
335
335
334
335
337
337
336
340
341
342
344
343
339
334
331
329
327
327
328
328
326
326
332
355
376
389
398
401
346
248
187
187
218
246
268
281
296
313
329
338
340
342
342
344
346
347
347
348
349
350
352
354
354
354
354
355
358
359
360
392
330
330

340
342
345
347
348
350
352
354
356
358
357
354
350
350
352
353
352
352
355
356
366
389
411
425
436
434
366
269
221
234
270
300
324
338
348
366
383
391
396
398
401
404
407
409
412
413
416
418
421
424
425
428
431
435
437
439
443
446
445
446
448
448
447
445
442
437
431
427
421
414
408
404
400
396
394
394
393
393
391
392
392
393
394
394
393
394
396
397
397
398
398
398
398
398
400
401
401
400
403
402
403
403
404
404
404
404
404
404
408
411
409
409
411
411
412
413
412
410
406
403
402
400
400
401
400
401
404
417
441
458
16
368
365

360
360
