,344,344,343,345,344,345,347,349,350,352,354,356,357,355,356,358,359,359,357,354,351,347,345,346,344,344,346,350,368,391,403,407,408,371,270,196,191,225,263,292,306,316,333,351,362,366,369,370,372,373,375,378,379,381,382,383,386,388,389,390,393,395,397,398,400,402,403,404,401,399,395,392,386,381,374,368,362,358,353,350,347,343,343,342,341,341,340,339,339,340,339,341,341,341,341,343,344,344,346,347,349,353,355,354,353,353,356,357,358,356,353,350,346,344,342,342,342,342,343,359,385,399,401,403,376,276,192,184,218,255,286,306,319,336,353,363,367,369,370,372,372,374,376,379,381,383,385,388,391,391,394,397,399,401,403,405,406,406,407,406,403,401,397,390,384,378,371,366,360,355,351,348,345,343,341,340,341,340,341,340,340,341,341,342,341,342,343,345,346,346,348,347,350,353,353,353,354,354,356,358,359,358,354,350,345,343,343,341,341,343,345,359,384,398,401,405,377,279,195,182,213,251,284,304,320,338,357,367,369,370,372,375,375,377,379,381,383,386,388,390,391,395,397,400,402,405,408,408,410,410,410,408,407,405,399,394,388,381,372,367,360,355,352,347,344,343,340,341,340,339,339,338,338,337,339,340,341,342,343,344,344,343,344,345,346,346,347,348,350,352,354,354,356,355,357,356,357,353,349,346,344,343,343,344,344,345,351,371,391,400,403,394,318,223,188,203,240,276,299,315,334,354,366,371,371,373,375,377,378,380,381,384,385,388,391,393,395,398,401,403,406,408,410,410,411,413,412,412,410,405,399,393,386,379,371,364,359,353,348,344,342,339,338,337,337,337,338,339,338,339,340,339,340,341,341,340,341,341,341,343,344,343,344,344,344,345,347,345,345,345,348,351,352,352,353,354,355,355,356,355,351,346,342,342,341,341,341,342,344,354,377,396,404,412,391,302,223,204,222,253,280,299,314,333,354,365,369,370,372,373,375,377,378,381,384,385,387,390,391,393,397,398,401,404,406,409,411,411,412,411,407,406,404,400,392,385,378,371,365,359,353,350,347,343,341,341,338,338,337,338,338,337,338,338,338,341,342,342,342,341,343,343,345,343,345,345,345,347,347,346,347,347,347,346,345,346,346,346,349,351,351,350,352,354,355,356,354,352,349,347,343,342,342,343,343,343,346,365,389,403,412,417,383,288,211,201,232,265,288,304,315,332,350,363,367,368,370,375,376,378,379,381,382,384,385,387,390,392,393,396,398,400,402,404,404,404,405,404,404,403,400,394,388,383,376,369,363,360,356,352,345,343,342,341,341,342,341,339,338,339,339,340,340,340,340,342,344,345,345,347,348,346,346,347,349,350,348,348,349,349,348,347,347,349,349,347,348,350,353,350,349,351,356,356,356,356,353,349,344,344,344,343,344,346,345,350,372,396,408,415,419,385,290,215,208,238,271,294,307,316,334,351,364,369,370,372,372,374,376,378,379,381,383,384,385,386,389,390,391,395,399,400,401,402,403,403,403,401,398,395,391,385,379,372,367,363,359,355,352,349,346,344,343,342,341,340,341,342,341,341,341,343,344,342,343,345,345,346,349,346,346,348,349,348,350,350,350,351,350,349,349,349,348,350,352,352,353,353,352,352,354,356,358,357,354,350,348,347,346,347,346,347,346,350,370,396,410,415,420,383,286,213,211,245,273,295,309,319,335,351,364,367,368,369,371,373,374,376,379,380,381,382,383,384,387,390,393,394,396,398,401,402,402,402,401,398,397,394,388,383,377,372,367,361,356,352,349,347,344,342,341,341,341,341,340,340,340,341,342,343,343,343,343,343,345,345,345,347,348,347,347,348,349,349,348,348,348,349,349,350,351,351,351,352,354,353,353,353,356,357,359,357,353,350,348,347,346,346,346,346,348,360,385,407,417,420,410,328,233,207,228,260,285,302,313,329,348,362,367,369,370,371,373,376,378,380,381,382,385,386,387,389,392,394,397,401,403,405,404,405,406,405,404,403,400,396,389,383,377,370,363,357,352,347,344,342,340,339,340,340,338,339,340,341,342,342,341,342,342,343,342,342,343,343,344,345,345,345,345,345,344,344,346,347,345,346,346,346,345,346,347,347,347,348,351,350,350,352,352,355,357,358,353,350,347,345,344,344,345,345,344,346,360,392,414,421,422,397,301,216,200,223,254,279,296,312,333,352,363,367,370,372,375,378,379,380,382,384,385,386,388,391,393,396,398,401,404,406,409,410,410,411,412,411,409,405,398,394,386,378,371,365,359,355,350,345,342,340,338,337,337,338,336,337,338,339,337,337,337,338,339,339,340,341,343,343,344,344,344,345,345,345,346,347,346,346,346,346,345,346,346,344,345,344,344,345,345,347,348,350,349,351,351,352,355,357,353,349,346,343,341,341,342,343,343,344,347,369,399,417,420,416,359,257,202,203,230,259,283,302,324,346,361,367,368,368,371,374,377,379,382,383,385,387,389,393,396,398,400,403,404,407,411,414,414,416,415,414,415,413,409,405,399,391,384,375,367,360,354,350,347,345,341,341,339,338,338,337,337,337,338,338,339,339,339,340,340,340,340,341,341,342,343,344,343,344,346,346,345,345,344,344,346,346,345,346,345,345,344,343,344,346,345,346,347,349,350,351,352,353,356,357,356,352,350,348,345,344,345,346,346,346,346,358,385,407,419,423,415,342,245,209,221,252,278,297,310,328,347,364,370,371,371,375,378,377,380,382,382,384,386,388,390,392,395,397,399,401,405,409,410,411,411,411,411,410,407,404,399,393,385,379,371,366,358,353,348,346,343,341,341,341,340,339,339,337,336,339,338,338,338,339,339,339,341,341,340,341,343,344,344,344,344,344,346,346,348,347,345,346,344,344,345,346,344,344,346,345,346,346,349,349,352,352,352,353,357,359,359,355,350,347,346,346,346,346,347,347,350,364,389,408,415,418,407,328,236,211,229,260,281,299,312,327,343,358,366,368,368,370,373,375,375,378,379,381,383,384,386,387,387,389,392,397,399,400,402,403,403,402,401,399,396,394,391,385,377,372,369,363,358,352,349,348,346,344,341,342,343,341,342,340,340,341,341,345,345,342,343,345,344,344,346,347,346,347,347,348,348,348,349,350,351,350,349,349,349,350,347,348,348,347,347,349,351,351,350,351,352,352,354,356,357,352,348,345,345,345,345,345,346,345,351,372,399,412,415,419,381,280,211,213,244,271,292,308,319,336,353,365,368,369,371,371,373,374,375,377,377,379,382,383,385,387,389,391,393,396,398,401,401,403,403,402,401,399,396,391,385,380,374,368,362,359,354,351,346,343,341,340,339,340,339,338,337,338,338,338,340,340,340,340,341,342,342,345,344,345,346,347,348,347,347,348,347,346,347,346,346,347,347,346,347,349,350,351,350,351,353,353,355,356,355,352,348,345,345,343,344,344,344,345,348,368,396,414,418,418,382,283,208,208,239,269,291,305,318,334,351,363,368,369,369,370,374,375,376,378,379,381,383,385,386,388,391,394,396,398,399,402,404,404,405,405,404,401,397,393,386,381,375,368,361,356,351,348,344,342,341,340,339,339,338,337,336,337,336,335,337,338,338,340,340,340,341,342,342,343,343,343,344,344,344,345,345,345,346,346,346,347,348,348,346,346,349,351,350,352,352,353,354,355,352,350,347,345,344,344,344,344,343,344,352,381,408,418,417,410,335,233,196,213,244,272,293,309,328,347,362,367,370,372,374,375,377,380,381,383,384,386,388,390,393,396,398,401,403,406,408,410,411,412,412,412,410,407,405,399,392,384,377,370,363,356,352,348,346,343,341,340,340,339,339,338,339,340,339,339,340,339,339,340,341,343,343,343,343,344,345,344,345,345,344,346,346,346,346,347,347,348,348,348,347,346,349,351,352,354,354,356,358,359,356,351,348,345,343,343,343,344,342,343,350,375,404,419,419,410,337,235,191,203,235,263,286,305,328,350,365,369,372,372,375,377,379,381,383,385,386,389,391,394,396,399,401,403,406,408,411,413,415,415,416,415,413,410,409,403,396,389,382,373,366,360,355,350,346,344,341,340,339,339,339,339,340,338,339,340,341,341,341,342,342,341,342,343,344,344,345,346,346,346,347,347,348,347,348,349,348,347,347,347,348,350,351,352,352,353,354,355,356,358,357,352,349,345,343,341,341,342,342,342,345,361,389,407,415,420,386,288,214,202,222,254,281,300,318,338,358,366,369,372,374,375,377,380,383,384,385,387,389,390,393,396,398,401,403,408,411,412,413,414,416,416,414,413,410,407,400,395,386,378,371,366,359,354,348,345,343,341,342,339,338,338,338,338,339,340,340,341,341,341,342,342,342,343,343,342,342,342,342,344,344,343,343,345,346,345,347,347,346,347,349,351,350,352,353,355,356,357,356,352,347,345,344,344,344,344,345,345,351,374,398,410,416,420,369,270,200,201,237,266,291,306,319,337,356,366,368,370,373,374,376,378,380,382,383,385,386,389,390,392,395,396,398,400,401,403,405,405,404,403,402,400,398,395,390,384,378,372,365,359,354,350,347,345,343,343,340,339,339,339,338,338,340,341,340,342,343,344,343,343,343,345,346,346,347,347,347,348,347,348,349,349,346,346,348,350,351,352,351,352,354,355,354,354,352,350,346,342,343,343,344,344,346,348,366,390,405,413,418,385,290,211,198,227,262,291,308,316,330,348,361,367,369,371,373,375,376,377,380,380,382,384,386,388,390,390,392,396,399,401,403,403,403,403,403,400,397,396,391,387,382,377,371,366,361,357,353,351,347,346,346,343,342,343,342,342,342,342,344,343,343,344,346,345,345,346,347,348,349,350,350,350,351,352,350,352,355,358,357,356,356,357,357,357,360,358,353,349,347,347,347,346,346,347,348,356,378,397,407,411,407,334,235,192,208,245,275,300,311,326,343,360,368,370,371,372,374,376,378,382,383,383,385,385,389,390,391,393,396,397,400,402,404,404,402,404,403,401,398,394,388,382,377,374,369,362,357,354,351,347,346,345,343,342,342,343,343,342,343,343,344,345,345,345,346,346,347,347,347,349,350,349,349,350,350,350,351,354,354,354,355,356,356,357,358,357,354,351,347,345,345,346,345,345,346,356,378,395,402,404,387,299,206,184,213,249,280,301,314,332,350,363,368,370,371,373,375,377,379,381,384,385,386,390,391,392,395,398,400,401,403,407,409,409,409,410,408,404,401,397,391,386,380,372,365,360,355,351,346,343,342,341,340,340,338,339,340,340,338,339,341,341,342,343,343,344,345,344,345,346,347,347,347,348,349,351,354,357,357,357,356,357,358,358,356,352,350,347,345,343,343,344,343,344,350,367,389,398,401,391,317,218,180,200,240,273,295,312,333,353,366,370,374,375,377,379,380,381,384,384,387,390,390,392,396,398,400,403,405,407,409,411,412,411,411,411,409,407,402,397,392,384,377,370,365,358,353,349,346,344,344,343,343,342,342,342,342,341,341,341,341,341,344,345,346,346,346,347,348,348,348,347,348,350,349,351,353,355,355,355,357,357,358,358,356,353,347,344,342,342,342,342,343,345,354,376,393,401,403,372,276,197,187,215,250,280,300,318,339,358,368,371,372,375,377,380,382,384,386,387,389,392,395,398,400,401,404,407,409,410,412,414,415,414,413,412,410,407,402,397,392,385,377,371,364,357,351,349,345,342,341,341,339,339,340,339,339,340,341,341,341,341,342,342,341,342,344,343,344,345,344,344,346,346,345,348,351,349,349,349,351,352,352,354,353,349,343,342,341,341,341,343,342,344,359,381,394,402,409,378,283,201,185,214,251,280,300,314,332,353,364,369,370,370,371,374,376,379,379,380,384,386,387,389,393,394,396,399,401,401,401,403,406,406,405,405,404,402,397,392,386,380,374,368,362,357,352,350,345,343,342,342,340,340,341,341,340,340,342,343,343,345,344,344,345,346,346,347,347,346,347,347,349,351,354,356,355,354,355,356,356,356,352,349,346,344,342,344,344,344,342,344,354,377,394,404,411,401,322,225,185,203,243,275,298,308,323,341,360,367,369,370,372,374,375,377,381,381,383,384,386,387,390,393,394,395,398,399,401,401,402,401,400,399,399,394,391,388,384,378,373,369,363,359,353,350,347,345,344,344,343,342,342,342,341,342,344,344,345,346,346,347,348,349,347,348,349,351,351,351,353,356,357,357,358,359,359,359,360,357,353,348,345,345,347,346,345,347,348,360,381,397,406,413,399,317,223,188,209,248,283,304,311,325,344,359,366,370,371,372,373,375,379,379,382,383,385,386,389,390,390,393,395,398,400,401,401,401,400,402,401,397,394,391,386,382,378,373,366,361,356,353,350,349,347,344,344,345,344,344,343,343,343,345,345,345,347,347,346,349,349,349,351,352,353,354,358,359,359,360,359,359,361,362,361,359,354,350,348,347,348,348,347,347,352,370,390,398,404,402,349,252,194,200,237,275,303,315,321,338,357,368,372,372,374,376,377,378,380,381,382,384,385,387,389,389,391,394,396,398,401,401,401,402,401,400,397,394,392,389,383,377,371,366,361,356,353,349,347,346,343,342,344,343,341,341,341,343,344,343,343,344,346,347,347,347,347,349,350,350,352,357,357,357,356,355,356,357,358,357,351,346,343,343,343,343,342,342,345,360,380,392,396,397,363,267,192,190,226,263,291,309,322,337,353,365,371,371,372,374,376,378,380,381,383,385,385,386,389,392,393,395,397,399,402,403,404,404,403,402,402,401,396,392,386,381,375,368,363,358,354,351,349,347,345,343,341,343,341,341,342,342,342,343,344,344,345,345,347,347,347,348,349,350,350,353,357,357,356,355,357,358,359,360,357,352,349,346,342,342,343,342,341,344,355,377,391,397,399,377,287,200,184,216,253,284,304,319,336,355,367,371,371,372,374,375,377,379,381,383,386,387,389,392,392,394,397,400,404,405,406,408,408,408,406,404,402,399,395,389,383,375,369,363,357,353,349,346,343,340,340,340,338,341,340,340,340,341,341,342,343,346,346,346,345,345,346,347,347,347,349,349,352,355,355,356,356,357,357,357,356,353,348,345,342,341,341,340,340,341,346,364,384,393,396,387,312,217,182,202,241,274,296,312,330,350,364,369,371,372,373,375,378,378,381,383,385,387,390,391,394,397,398,401,403,405,407,410,410,408,409,407,407,404,399,392,386,380,374,366,360,354,349,346,344,341,341,340,339,338,338,338,337,338,337,340,340,340,342,342,343,344,343,343,343,345,345,345,347,347,348,351,352,353,355,355,355,356,356,352,346,343,341,340,340,339,339,342,344,361,384,396,400,396,333,234,185,196,231,268,293,309,329,350,364,368,370,371,371,374,377,379,381,384,384,387,390,392,394,397,400,402,404,407,409,411,411,413,412,411,408,405,402,398,393,383,376,370,364,358,352,347,344,341,341,340,340,339,339,340,340,339,338,338,341,341,341,341,342,342,344,343,344,344,345,346,345,344,344,346,347,351,351,351,351,352,354,354,355,354,349,345,341,340,341,342,341,341,342,350,371,389,401,408,399,320,225,188,205,241,274,297,310,328,348,362,367,369,372,373,376,379,379,380,383,385,388,390,392,395,398,398,401,405,406,408,409,409,408,408,408,406,404,399,394,387,381,375,369,363,356,352,349,345,343,343,341,340,340,339,338,338,340,340,340,342,343,343,343,342,343,344,344,345,345,345,345,346,346,347,347,349,352,353,353,352,352,354,356,356,356,352,348,345,343,344,344,343,343,345,353,374,396,407,415,418,355,252,193,199,239,272,296,308,319,336,353,363,369,370,371,372,374,375,379,381,381,383,384,385,388,389,392,394,395,397,399,401,402,401,402,401,398,395,394,390,386,379,374,368,364,359,355,352,349,348,347,345,343,343,343,342,343,343,342,344,345,346,346,348,347,348,349,350,349,350,351,352,351,350,350,349,350,354,357,356,356,356,356,357,358,358,355,351,348,345,342,343,345,346,346,353,374,396,408,415,415,350,250,194,203,242,277,302,312,321,340,357,366,370,370,370,373,375,377,379,380,381,383,385,389,390,390,394,395,396,397,398,400,401,399,401,400,399,396,392,388,382,377,372,367,362,357,354,349,347,347,345,343,340,341,342,341,342,342,342,341,341,343,343,343,344,344,345,346,346,346,345,347,348,348,349,351,353,354,356,355,355,356,357,356,353,350,347,345,344,345,345,343,343,351,373,394,404,408,408,347,245,191,202,240,274,300,311,324,341,357,366,368,370,371,374,376,379,381,382,383,383,385,387,391,393,395,396,397,399,401,403,402,402,402,402,399,397,394,389,384,379,373,366,359,355,351,349,348,345,344,342,341,340,340,342,342,341,341,343,343,343,343,345,346,345,346,347,347,346,348,347,349,349,350,351,353,355,355,354,354,356,356,358,356,353,349,347,345,345,344,343,344,344,357,381,398,406,409,391,300,210,193,223,257,287,305,316,333,351,364,368,370,370,373,375,375,377,378,381,384,385,388,390,391,393,397,399,401,404,404,405,406,406,407,405,403,401,397,389,384,378,372,366,361,357,352,348,348,347,345,343,343,342,341,342,342,341,341,342,343,343,343,344,343,343,345,347,346,345,345,345,344,345,347,347,348,350,353,352,352,354,355,354,355,354,352,347,344,342,340,341,341,343,343,346,364,389,402,408,408,354,253,198,204,235,266,289,303,320,340,356,363,367,370,372,372,374,376,378,379,381,383,386,388,391,393,394,396,401,404,406,407,409,410,409,409,408,405,401,396,389,382,374,368,362,356,350,347,343,341,340,338,337,337,338,337,336,337,337,337,337,339,340,340,339,340,342,342,343,344,344,343,344,345,344,345,345,345,345,347,349,350,349,351,351,352,352,354,353,350,346,343,342,341,341,340,340,342,348,369,393,406,412,400,322,229,198,213,244,275,295,312,333,353,364,369,372,373,373,375,378,379,383,384,385,388,390,392,394,396,398,401,406,408,410,411,413,412,413,411,410,407,403,398,391,383,375,368,362,356,351,346,344,342,339,339,340,339,338,338,341,340,340,340,341,341,342,343,343,343,344,345,345,345,344,344,345,347,346,346,346,347,348,349,351,352,352,352,352,352,354,355,356,353,348,345,344,343,344,343,343,344,345,356,381,399,409,417,396,305,221,201,221,253,282,302,316,336,356,366,369,371,372,375,378,380,383,385,384,386,389,393,394,396,397,398,402,403,406,408,410,409,410,410,410,406,404,400,396,388,382,376,370,364,359,353,350,347,343,341,340,342,341,339,340,340,340,340,340,340,340,342,344,343,343,344,345,345,346,345,346,348,346,346,346,347,346,346,348,351,351,349,349,351,352,353,354,353,348,345,342,341,342,344,343,342,345,357,380,400,411,417,400,314,221,189,213,251,281,300,309,324,343,359,367,370,373,373,376,378,378,381,383,383,385,388,388,390,393,395,396,399,401,403,403,404,404,405,404,402,398,395,391,386,380,373,368,363,357,353,351,350,347,347,346,344,343,343,342,343,341,343,346,346,344,344,345,347,347,347,347,348,350,350,350,349,349,349,349,351,353,355,355,355,355,355,355,356,356,355,351,347,346,344,345,345,344,344,348,358,380,400,411,418,407,329,233,193,210,250,280,301,311,324,343,359,368,372,372,374,375,377,378,379,381,383,385,386,387,389,390,391,393,396,399,399,400,403,403,402,401,400,397,392,389,383,377,372,369,364,359,355,352,350,348,347,347,344,344,343,343,343,345,345,346,346,346,347,347,348,349,349,350,350,352,353,352,352,352,353,355,358,357,358,358,358,358,359,359,358,353,348,347,347,348,347,347,348,350,365,387,401,408,410,381,284,199,192,227,263,292,310,320,334,352,366,370,372,372,373,375,378,379,382,383,384,387,388,389,392,394,395,398,401,402,402,402,403,403,402,401,399,396,391,387,382,376,370,366,362,357,353,350,348,346,345,344,345,344,344,342,341,341,342,344,346,345,345,345,347,349,349,349,350,348,348,349,350,351,352,354,357,355,355,357,357,358,359,357,353,348,346,345,346,346,345,345,346,355,377,395,403,406,396,317,221,190,213,250,280,302,313,330,349,364,369,370,370,374,377,378,380,382,383,387,388,390,390,392,394,396,400,402,404,407,408,409,409,409,407,406,402,399,394,386,380,373,368,362,357,352,349,346,345,345,344,341,340,341,340,340,341,342,342,341,343,344,342,344,345,346,345,346,347,347,347,350,349,351,352,353,354,356,355,354,355,355,354,348,345,342,341,340,340,340,339,342,355,377,392,398,399,361,262,192,191,225,257,284,301,319,339,358,368,370,372,373,375,377,378,380,382,384,387,390,391,393,397,398,400,402,406,408,409,410,411,410,410,409,406,401,397,391,383,375,368,362,356,351,348,344,342,341,338,338,339,339,340,340,339,340,340,341,343,343,343,344,345,345,344,345,345,345,345,348,348,348,350,352,353,352,354,355,356,355,356,353,349,346,343,342,342,343,343,343,346,361,382,395,400,399,349,248,188,193,227,262,290,307,325,345,362,368,370,371,373,376,378,381,383,384,385,388,390,391,393,396,400,402,404,407,409,412,412,412,411,411,409,407,403,399,394,386,379,372,365,359,354,350,347,344,342,341,339,338,339,338,338,338,339,341,341,343,343,343,343,343,344,344,344,346,346,346,345,345,346,346,350,352,352,353,355,355,356,356,355,351,347,344,341,341,340,340,340,340,344,361,381,394,402,402,343,247,194,200,232,264,289,306,328,349,363,369,371,373,375,378,378,379,381,383,385,386,389,393,395,397,399,402,402,404,408,410,409,410,410,410,408,407,402,397,392,383,378,371,364,358,353,348,345,345,342,340,340,339,339,340,340,340,340,341,342,341,341,342,344,344,344,344,345,347,347,348,349,349,351,353,353,353,353,356,356,356,355,354,349,346,344,343,342,343,344,343,344,356,376,394,404,411,403,325,226,182,200,239,273,296,306,321,341,359,367,370,373,374,374,377,378,381,383,385,387,388,389,391,394,397,399,400,401,401,401,403,404,401,400,399,398,394,389,385,380,373,366,361,356,352,348,345,344,342,342,340,339,340,341,340,341,340,340,342,341,341,343,346,346,346,347,348,349,350,351,353,355,354,355,355,357,359,359,357,355,351,347,344,344,345,344,342,343,346,361,382,396,405,412,386,293,206,184,210,251,283,302,312,327,346,363,369,370,373,374,376,378,379,381,382,385,386,386,388,389,391,393,395,396,397,399,401,401,401,401,399,399,394,389,384,381,376,371,365,360,355,351,349,346,345,344,343,341,340,340,341,342,342,343,344,343,343,345,347,346,347,349,349,350,349,352,355,355,356,355,356,358,358,358,356,352,348,344,343,345,346,345,346,347,356,376,395,403,409,403,332,233,185,200,241,276,301,312,324,340,357,367,370,371,372,373,375,378,379,381,384,386,387,387,389,390,392,394,396,398,400,401,401,402,401,400,398,395,392,388,382,377,371,366,361,356,352,349,347,346,345,345,343,344,344,344,342,343,343,345,346,346,344,345,347,348,350,351,350,352,355,357,358,359,359,359,360,361,361,358,353,349,346,346,346,346,346,346,351,368,387,396,402,401,347,247,187,196,233,270,299,312,323,341,359,369,372,373,375,377,377,379,381,382,385,387,390,390,391,394,397,399,400,402,403,406,405,406,405,403,401,398,395,390,385,380,374,368,364,358,355,351,348,344,343,343,342,342,340,340,343,343,343,343,344,344,346,347,347,347,349,350,351,352,355,359,358,357,359,359,358,360,359,355,350,346,344,343,342,344,343,343,350,369,387,392,393,385,307,208,172,198,240,275,300,315,330,349,364,368,372,373,374,375,377,379,381,383,386,388,390,391,392,396,397,400,402,403,404,405,406,407,406,405,404,400,396,390,384,378,371,365,358,353,348,346,344,344,342,340,339,338,338,338,340,341,341,342,343,343,343,344,343,345,346,346,347,349,351,352,354,355,354,355,357,357,353,349,346,344,343,343,343,343,342,348,366,386,394,397,392,324,224,176,193,232,270,296,315,333,353,364,370,372,373,373,376,379,380,382,384,386,388,390,391,395,398,401,403,403,406,410,411,411,413,410,409,409,405,399,394,388,381,374,367,361,355,351,348,345,343,341,340,341,340,340,340,340,340,341,341,343,343,344,344,345,346,346,348,349,350,352,354,355,356,358,357,356,356,354,351,347,345,343,342,342,343,342,345,358,380,393,398,402,359,258,188,184,215,256,287,307,325,345,363,367,370,372,374,376,378,380,382,383,384,387,392,394,395,397,400,401,403,405,405,407,409,409,409,409,409,407,403,397,391,384,377,369,363,356,352,348,345,341,341,339,338,336,336,335,335,337,337,338,338,338,339,341,339,339,341,342,343,344,345,348,352,353,352,351,352,354,355,355,353,348,343,341,340,341,341,340,341,344,358,381,395,404,411,376,279,194,178,210,252,286,304,314,332,352,363,368,371,371,372,374,378,381,382,383,386,387,387,388,391,393,395,398,400,400,400,400,402,402,403,402,401,397,392,387,382,375,370,364,359,353,350,347,344,343,342,341,339,339,340,341,341,342,342,343,345,346,345,345,347,348,347,349,350,353,357,357,356,356,358,362,361,360,357,353,349,346,343,344,344,343,344,347,358,380,399,408,414,397,310,214,180,202,246,281,301,310,328,346,364,370,372,373,375,377,377,380,380,382,384,387,389,389,389,391,394,395,398,400,401,402,401,400,400,401,397,394,390,386,383,379,371,366,361,355,352,349,348,346,345,345,343,344,345,344,342,344,346,347,346,344,345,344,344,343,346,347,347,350,352,353,353,352,353,354,353,354,351,350,345,341,339,340,341,340,341,343,355,378,393,401,407,388,301,209,181,204,247,281,303,311,323,340,357,366,367,368,371,371,374,376,378,380,381,383,385,387,387,389,392,394,395,397,399,399,400,399,397,397,397,393,389,384,379,374,369,363,359,356,350,349,347,345,344,345,344,341,342,344,342,341,343,343,345,345,345,346,347,348,350,352,354,355,355,356,355,358,358,358,359,357,353,349,346,346,345,345,344,345,347,360,379,393,399,403,369,271,197,193,226,264,297,311,320,336,354,367,371,372,373,374,377,379,381,384,384,387,390,392,393,395,397,399,400,402,403,404,406,405,405,403,401,400,396,391,386,380,374,370,366,359,355,352,350,348,346,346,345,345,345,346,345,346,346,346,345,345,345,347,350,350,351,351,351,354,356,358,357,358,359,360,361,363,359,356,353,350,348,348,347,348,347,349,362,384,395,400,403,369,270,194,192,227,263,293,309,323,342,358,367,371,372,374,376,378,380,383,384,386,389,390,392,395,396,398,400,402,403,406,407,408,408,407,407,405,401,397,393,387,380,373,369,363,357,354,350,348,345,347,346,343,343,342,341,341,341,341,343,344,343,344,345,345,344,344,345,347,347,349,353,354,354,356,357,358,358,359,357,352,348,346,345,344,344,344,344,345,359,382,394,397,398,357,258,192,191,225,262,290,307,324,344,361,368,369,371,371,373,376,378,379,381,384,386,388,391,393,395,396,400,403,406,407,408,410,410,409,407,406,404,400,393,388,380,372,366,360,354,350,347,345,342,340,341,340,339,339,338,339,339,340,340,341,343,344,343,343,344,345,344,345,345,346,346,348,351,353,353,355,355,355,355,356,356,352,346,342,341,339,340,340,340,341,348,368,386,396,400,382,294,206,183,207,244,278,297,315,335,355,364,367,369,370,371,374,377,379,381,383,386,387,389,392,395,397,400,404,406,407,408,408,409,409,409,407,406,402,400,394,387,380,374,367,360,355,350,346,344,341,339,340,341,340,340,341,340,341,342,342,343,343,344,345,346,345,345,346,346,347,347,349,349,350,350,351,352,351,352,354,355,356,356,352,348,343,341,340,340,340,341,342,345,360,380,392,400,404,358,261,198,197,228,262,288,304,321,340,359,366,369,370,371,372,375,378,380,381,384,385,388,390,392,395,397,398,401,402,405,405,407,408,409,408,406,403,399,395,389,384,377,370,364,360,355,350,345,342,341,340,340,339,338,338,338,338,339,341,342,342,342,343,344,345,344,344,345,347,347,348,350,349,352,355,354,352,352,353,355,356,354,351,348,343,342,341,342,340,340,342,348,365,387,400,410,414,370,270,194,188,223,261,291,306,317,334,353,365,369,370,371,372,374,377,378,380,381,382,384,386,388,389,389,392,393,395,397,398,400,401,400,398,397,396,393,389,386,380,375,368,364,359,355,351,346,343,342,343,342,341,341,344,342,342,341,340,342,343,343,343,345,347,347,349,349,348,350,351,351,354,357,358,357,356,357,359,359,357,356,353,349,348,347,347,347,347,347,349,365,388,403,410,414,384,290,206,190,219,260,292,307,315,332,348,362,368,370,373,375,378,378,379,381,385,385,386,387,390,392,394,397,400,400,402,404,403,406,405,403,401,400,397,393,388,383,377,372,366,363,359,355,351,351,349,347,345,344,343,345,344,345,344,345,347,347,346,347,349,349,349,350,352,355,356,358,360,359,359,359,362,363,363,363,361,357,353,350,347,347,347,346,346,348,360,380,396,404,408,386,298,210,190,219,258,291,310,318,331,349,362,368,370,371,373,375,377,378,380,381,383,385,386,389,390,392,395,396,397,399,400,401,401,402,402,399,397,393,390,386,380,376,370,364,360,356,352,350,348,346,345,344,343,343,344,343,344,344,345,345,345,348,350,349,350,349,350,350,351,351,353,355,357,357,356,355,358,359,360,357,355,350,346,344,344,344,343,343,345,352,371,387,396,399,391,318,223,187,210,249,280,302,314,329,347,362,367,370,371,372,375,377,378,379,382,383,384,386,388,389,390,395,397,399,401,403,404,404,403,402,399,398,397,393,387,382,376,368,361,358,353,349,346,344,342,341,342,342,341,341,339,339,340,341,341,342,342,343,345,346,345,346,346,346,347,348,350,351,353,354,353,355,356,356,356,357,354,351,346,343,341,340,342,341,342,343,350,370,388,397,399,385,301,209,184,210,248,279,299,314,332,351,363,367,370,370,372,374,376,379,381,382,385,387,389,392,395,398,400,401,402,404,405,407,408,409,408,407,405,402,398,392,386,379,372,365,358,353,349,345,341,340,339,339,338,338,337,339,339,339,340,340,339,340,340,342,342,342,342,343,343,345,346,347,348,350,352,353,354,355,355,355,356,352,347,344,342,340,340,340,340,340,342,356,378,391,394,393,347,246,184,189,223,260,287,304,323,344,359,365,369,370,370,373,376,377,379,382,385,387,389,392,395,397,399,401,403,404,406,409,409,408,408,409,407,404,402,398,390,383,377,370,364,357,352,348,345,343,341,339,340,340,340,339,339,338,339,339,340,340,341,342,344,345,345,345,344,344,345,345,346,348,351,353,354,355,355,358,357,357,353,349,344,341,341,340,340,340,340,343,358,379,391,398,398,342,243,191,197,228,262,288,308,329,349,364,369,371,372,375,375,378,380,382,384,385,387,389,391,395,398,401,401,403,407,408,409,410,411,411,409,407,405,402,397,391,384,376,370,365,359,352,348,345,343,342,342,341,339,339,341,340,339,339,338,340,342,342,343,344,345,344,344,344,344,346,346,347,349,352,353,353,353,353,355,356,356,353,348,344,342,340,340,340,341,341,344,362,384,397,407,412,365,266,191,181,216,256,285,299,311,332,353,365,368,370,372,374,375,377,380,383,384,385,387,388,391,392,395,396,399,400,401,402,401,402,404,402,399,400,397,393,386,382,376,370,365,359,357,353,348,347,346,344,342,342,341,341,342,343,342,343,343,344,345,346,346,346,346,346,347,349,349,352,355,356,355,355,356,359,359,357,354,350,345,341,341,341,340,341,341,344,357,378,393,403,410,394,308,213,179,201,243,278,299,310,326,344,360,367,369,371,373,375,375,377,380,384,383,385,386,388,388,390,393,395,396,399,401,401,402,402,401,398,397,394,390,386,381,376,371,363,360,357,355,351,348,346,344,344,343,341,342,345,343,343,342,343,345,346,346,346,348,349,350,350,353,358,358,357,356,356,359,360,360,359,354,349,346,345,345,345,346,346,346,350,369,390,400,404,407,360,261,190,189,226,264,295,308,318,335,351,363,368,370,372,375,377,379,381,382,382,385,386,387,389,392,393,396,398,400,400,402,402,403,402,400,399,397,395,390,385,380,374,370,364,360,355,353,350,346,346,346,344,344,344,345,344,344,346,345,346,346,347,349,350,350,351,352,356,360,362,360,359,360,362,363,362,360,357,353,349,347,347,347,347,347,349,359,380,394,401,404,388,304,210,183,209,249,283,306,314,327,346,362,368,371,372,374,375,377,379,380,381,383,386,388,391,391,392,395,397,398,399,400,402,401,402,402,401,397,393,390,386,379,373,368,363,359,355,351,347,345,344,343,343,343,344,343,342,343,343,344,346,345,345,345,345,347,349,348,352,355,356,356,356,357,359,360,360,359,359,354,350,348,346,345,346,346,346,350,367,386,395,397,395,337,233,177,194,235,271,298,312,328,344,361,368,371,372,373,375,378,380,380,381,383,386,389,391,392,393,396,398,399,402,404,404,405,406,405,404,402,400,396,390,384,379,372,366,361,355,349,347,346,344,341,340,339,339,340,339,340,340,341,342,344,343,344,344,346,348,350,351,353,354,356,356,357,358,359,361,360,356,350,346,344,344,342,341,341,342,350,369,385,391,393,380,300,204,173,197,239,275,298,316,335,353,365,369,370,372,374,376,379,380,383,385,386,388,391,393,394,396,400,401,403,405,406,407,408,408,407,406,404,402,398,391,384,376,370,365,359,353,349,345,342,339,339,338,338,339,340,340,340,340,340,340,341,342,341,341,341,343,345,346,348,350,352,353,355,356,357,357,358,357,351,346,343,341,341,341,341,340,340,348,369,387,391,394,376,287,198,175,201,242,279,300,318,336,356,365,369,370,371,371,373,375,378,380,382,385,388,390,392,395,398,400,403,406,407,408,410,410,409,409,407,405,401,397,391,384,376,369,363,356,351,349,347,345,342,342,341,341,341,340,339,339,340,340,340,339,341,343,343,342,344,345,346,346,349,352,354,355,355,356,356,356,356,355,351,348,344,342,341,341,341,341,343,354,373,389,398,406,377,282,202,184,209,247,280,300,318,338,357,366,370,372,374,374,377,379,381,383,385,387,389,392,394,395,398,400,401,404,408,407,407,407,409,407,405,402,399,395,389,382,376,368,364,360,353,349,346,342,340,339,338,338,338,339,339,340,341,341,342,343,342,343,344,345,345,346,346,348,351,355,353,355,354,356,355,357,356,353,349,345,341,340,341,341,341,341,344,361,385,398,406,414,375,275,191,177,212,253,285,301,311,328,348,361,364,366,366,368,372,374,376,379,381,383,384,386,388,388,391,394,394,397,399,399,400,401,401,399,397,394,391,386,382,376,370,365,360,354,351,349,346,344,342,339,340,340,339,339,338,340,340,340,341,342,343,344,344,345,345,346,348,352,356,356,355,354,355,358,359,358,353,348,346,344,342,343,342,340,341,343,358,381,394,402,407,379,286,199,180,210,249,284,305,313,328,346,361,368,371,373,374,374,375,378,379,381,383,385,386,387,390,392,394,395,397,399,399,399,399,400,397,398,397,393,388,382,377,371,366,362,359,354,351,349,347,346,345,343,343,344,344,344,344,345,346,346,346,347,348,349,349,351,352,352,354,357,357,358,358,359,359,360,362,360,356,351,348,346,345,345,346,345,347,360,380,395,402,407,391,304,210,183,209,250,285,307,315,330,348,364,369,371,372,373,375,377,378,382,382,384,385,387,389,390,392,393,396,399,399,401,403,402,402,400,399,397,394,390,385,380,374,369,364,360,356,353,349,349,348,347,346,346,347,345,345,345,347,347,348,349,350,350,351,351,351,352,354,357,360,360,359,359,359,361,362,361,359,356,352,349,348,348,347,346,346,349,363,384,395,399,399,361,263,190,191,227,264,294,312,326,341,358,368,372,374,374,374,376,379,380,382,385,386,388,391,393,395,397,398,399,401,402,404,403,403,403,403,401,398,394,388,382,377,372,366,360,357,354,350,347,345,343,342,343,342,342,341,341,343,342,343,342,342,342,343,344,344,345,348,348,350,353,353,351,352,355,357,356,356,353,349,345,343,343,343,342,341,341,344,360,382,392,394,394,346,244,180,187,224,262,291,308,326,345,361,368,372,374,374,377,379,380,382,385,386,387,389,392,395,397,398,399,402,404,405,408,408,407,406,405,405,402,398,392,384,377,371,364,359,353,350,347,344,341,340,339,338,338,338,338,338,339,340,340,340,341,341,343,345,344,344,344,347,348,349,351,352,352,353,356,356,356,357,355,351,346,342,339,340,339,340,340,342,351,373,389,395,398,368,272,193,183,214,253,284,303,321,339,358,366,370,370,372,373,378,380,381,384,386,387,390,392,395,397,399,401,403,405,407,409,410,410,409,408,407,405,402,398,392,384,377,370,363,357,351,347,345,342,339,338,339,338,337,339,340,339,340,341,343,342,342,344,343,343,344,344,344,345,348,349,350,352,354,354,354,355,356,356,356,351,347,344,341,341,340,341,341,342,347,367,385,395,402,391,311,220,187,203,239,274,298,316,335,354,364,369,369,372,374,376,378,379,382,384,386,389,391,394,395,398,401,402,405,409,410,410,411,410,409,408,407,405,400,393,386,379,373,366,359,353,348,344,341,341,341,340,338,338,337,337,339,339,340,340,340,341,341,341,342,344,345,346,347,346,345,346,348,351,351,351,350,350,354,356,356,356,353,348,343,341,340,341,341,34,,406,405,347,,187,190,226,262,290,303,316,335,353,362,365,368,368,371,374,375,377,381,383,384,386,389,390,391,392,394,397,398,401,400,401,401,400,400,398,395,393,388,382,376,371,366,359,355,352,348,346,346,345,343,341,340,341,339,340,341,341,341,344,345,345,346,346,346,347,348,349,349,351,350,349,352,354,355,354,354,356,358,359,358,356,351,347,346,345,345,344,345,345,347,362,384,399,406,413,393,300,209,183,210,248,281,302,311,325,343,360,367,370,371,374,377,379,379,379,380,384,385,387,389,391,392,394,398,400,400,400,401,403,401,396,348,350,399,350,349,350,350,351,352,351,353,358,359,357,357,358,358,360,360,357,353,351,349,347,346,346,347,347,348,355,376,394,405,408,403,334,236,188,202,244,281,303,312,326,343,360,369,372,372,373,376,377,379,381,383,384,384,386,388,391,393,395,397,398,400,403,403,402,402,401,399,397,394,390,385,382,377,371,366,362,358,355,351,349,347,346,345,343,344,343,343,343,344,343,344,345,346,347,348,348,349,351,350,352,351,352,356,358,358,357,355,356,356,359,360,356,353,350,347,347,347,345,346,348,351,369,388,396,399,396,341,240,184,19341,358,3683374,375,377,378,380,382,384,386,387,390,392,393,396,399,399,400,401,403,403,403,402,402,400,396,393,388,381,375,371,366,360,356,352,348,346,345,344,342,341,341,340,340,340,341,339,340,342,343,344,344,345,346,346,346,348,347,349,350,353,354,355,356,357,357,358,358,358,357,354,351,347,345,344,344,345,344,346,355,376,393,399,400,383,295,203,183,213,251,282,303,317,333,352,366,369,372,374,375,375,376,379,381,384,387,389,390,392,394,397,399,403,405,406,407,408,409,408,408,407,404,400,396,391,384,378,370,363,356,352,349,346,3,398,390,320,224,183,200,237,271,293,309,329,349,363,368,370,372,373,374,377,379,381,384,387,389,390,392,394,396,399,401,403,406,408,410,410,410,408,407,405,403,399,393,386,378,372,365,359,354,351,347,344,343,341,339,338,339,338,339,339,340,340,340,341,341,343,344,345,345,346,346,345,346,347,347,347,350,351,353,352,354,355,357,358,358,355,350,346,344,342,341,341,341,341,341,348,369,388,398,402,387,305,213,182,204,242,276,298,316,335,356,367,370,372,374,375,377,380,382,384,385,388,390,393,396,398,400,403,406,410,411,411,413,413,,367,360,356,352,348,345,342,342,341,340,340,342,341,341,342,342,342,343,344,345,344,345,345,345,346,347,346,348,348,348,350,352,354,354,356,357,357,356,356,354,349,345,343,341,341,340,341,341,343,353,375,390,400,407,378,287,208,190,211,248,281,299,315,336,355,366,369,371,373,374,374,377,380,383,384,386,388,391,392,393,396,400,401,403,404,405,407,408,407,407,407,405,400,396,391,384,377,373,365,357,352,349,345,344,341,340,339,339,338,339,338,337,339,340,340,341,341,342,343,345,345,344,344,344,345,347,350,353,353,354,355,356,356,354,355,352,348,343,341,340,339,339,337,337,340,350,370,389,399,408,401,326,224,175,190,232,269,294,304,318,337,357,367,369,370,372,374,376,379,380,382,381,384,387,388,390,394,395,396,399,398,400,402,402,401,401,399,398,396,392,386,381,376,369,364,361,356,352,350,347,346,345,342,341,342,343,342,343,344,344,345,346,346,346,346,346,346,348,349,349,350,352,354,355,355,357,358,359,358,358,357,353,347,343,342,343,344,344,344,347,360,381,396,406,410,388,297,206,180,208,251,284,304,312,328,347,363,369,370,3727,378,379,33185,386,387,389,391,394,395,394,395,398,400,401,400,401,399,399,396,393,391,386,381,373,368,363,360,356,354,350,346,345,346,344,343,342,343,344,345,346,346,346,346,346,348,349,348,350,351,353,353,355,356,359,359,360,359,359,361,359,354,350,347,345,344,346,345,344,346,356,377,392,399,403,389,309,215,181,204,244,281,305,314,327,344,361,369,371,372,373,375,378,379,380,382,385,386,387,391,393,396,397,397,398,401,403,403,402,403,401,399,399,394,391,387,382,375,369,364,359,354,351,349,347,347,345,345,345,344,344,344,344,344,32547,282,303,314,329,349,365,371,373,374,375,377,377,379,382,383,385,386,390,393,394,396,397,399,400,401,404,403,404,404,404,401,398,395,393,387,380,375,368,363,359,356,349,347,346,345,343,342,342,341,341,341,341,341,341,343,343,345,344,344,346,348,350,352,354,354,356,357,356,357,357,358,355,351,347,345,342,342,341,341,341,346,361,382,391,395,395,346,243,177,183,223,261,292,309,325,343,361,370,372,372,373,375,377,379,381,383,385,387,390,393,395,396,397,400,400,404,408,408,408,408,408,407,405,402,397,390,383,377,370,364,358,354,,376,376,3780,383,385,387,391,391,393,396,400,402,404,405,407,408,409,408,407,406,405,402,396,390,384,377,370,363,357,351,348,346,343,341,338,338,340,340,338,339,340,340,341,342,341,341,342,344,344,345,346,347,350,352,354,354,355,355,357,357,356,353,348,344,343,342,341,339,338,339,345,367,386,392,396,388,311,212,172,189,232,270,294,311,330,351,361,367,369,371,373,376,379,381,382,382,383,386,389,392,394,396,400,402,404,406,407,409,408,408,407,405,404,401,395,389,384,375,368,362,356,351,347,343,341,340,338,338,338,337,338,339,338,330,312,331,352,364,367,370,372,373,375,375,377,380,382,384,388,390,392,396,398,398,400,403,405,407,408,408,406,405,404,403,400,397,391,383,377,371,366,359,354,351,349,346,343,342,342,340,339,341,341,341,341,341,343,343,345,345,346,345,346,348,348,349,348,350,354,356,354,353,352,354,356,354,355,352,346,342,342,342,341,342,343,344,353,374,395,405,412,406,329,225,176,193,236,272,298,308,323,342,358,367,370,371,372,376,379,381,382,383,384,385,388,390,391,392,394,396,398,397,400,402,402,401,400,398,396,394,391,385,380,377,371,366,360,356,353,350,346,346,345,343,342,342,341,341,343,343,343,343,345,345,346,346,346,348,348,350,351,352,352,354,356,355,355,358,360,357,355,352,349,345,344,344,343,346,346,349,353,368,391,406,413,416,382,285,200,185,218,260,295,310,319,334,353,367,372,374,375,377,380,381,382,384,385,387,390,390,391,393,394,397,399,402,404,403,404,405,405,400,398,397,394,391,386,379,373,369,366,358,354,352,351,348,346,347,345,345,344,343,344,344,345,347,346,345,346,347,347,347,350,350,350,351,355,356,358,359,357,357,,400,400,409,397,396,394,390,384,378,372,366,362,358,353,350,346,345,343,341,341,340,340,340,341,340,341,342,342,342,343,344,346,347,348,349,349,349,350,352,355,356,356,355,355,357,359,359,358,354,351,349,347,344,344,343,344,344,350,369,389,396,399,391,313,218,185,208,248,279,302,314,331,349,363,368,370,371,373,375,376,377,379,381,384,385,388,389,391,393,397,401,401,403,405,406,406,407,406,403,400,395,392,387,380,374,369,361,355,351,348,345,343,341,338,338,338,337,338,338,338,339,339,340,342,341,342,344,344,343,343,344,345,346,34352,348,344,3343,342,342,342,343,350,372,389,398,401,387,301,211,186,210,248,280,301,315,334,352,363,366,369,372,374,376,378,380,381,382,384,388,391,392,394,397,399,401,405,407,409,410,410,409,408,407,403,401,395,389,381,375,366,361,357,352,346,343,340,338,336,337,336,335,336,336,336,336,337,339,340,339,340,340,340,341,342,343,343,344,343,345,346,347,349,351,351,352,352,353,353,353,353,351,347,344,341,340,340,339,340,341,344,361,384,395,400,397,336,239,190,197,232,269,291,306,327,347,361,368,371,373,374,375,376,378,381,384,385,387,,9344,344,344,46,346,346,347,348,349,351,352,351,352,352,353,355,355,352,347,344,341,340,340,340,341,341,344,362,385,397,404,407,349,250,196,198,228,262,288,305,325,346,362,367,370,371,374,376,378,381,382,384,386,388,392,394,395,399,403,405,407,409,410,411,413,411,411,412,412,409,405,400,393,386,377,369,362,357,352,348,346,343,341,340,338,336,336,337,336,337,337,337,338,339,340,342,342,342,344,344,344,344,345,344,345,346,345,346,348,350,352,351,352,353,354,353,355,356,352,347,344,340,340,341,342,342,342,348,367,389,402,411,413,360,,5400,401,403,05,407,409,408,408,407,404,401,398,393,387,380,374,367,363,358,353,349,348,345,344,343,340,339,340,340,340,341,341,342,343,344,344,344,347,346,346,347,347,348,349,349,349,350,349,350,351,353,354,351,352,354,355,355,355,354,352,347,344,343,341,340,341,342,343,349,368,390,403,411,414,365,265,196,194,228,264,292,307,316,334,354,365,369,371,372,373,374,376,377,379,382,384,386,387,388,393,398,401,402,401,405,406,404,402,401,401,401,397,394,388,383,380,375,369,362,357,353,352,350,349,345,343,343,343,344,343,342,344,344,344,334,353,355,353,353,349,343,344,346,343,343,343,346,354,375,395,405,411,407,337,236,187,200,240,275,298,307,319,338,356,367,370,371,372,374,375,378,380,382,384,383,384,390,390,391,394,398,400,399,402,404,402,403,402,401,399,396,391,387,382,373,369,363,357,354,350,347,344,341,339,340,342,342,339,339,341,343,342,342,342,344,345,347,349,349,349,350,348,347,349,351,350,352,355,356,353,354,353,349,350,355,358,356,352,347,344,345,344,343,342,343,352,374,393,402,407,403,329,227,182,200,240,273,296,309,325,342,359,367,369,371,375,376,378,380,381,382,384,387,388,391,393,394,396,399,400,402,403,404,405,404,402,401,400,396,392,388,381,375,371,365,361,358,353,349,347,345,343,343,343,342,342,341,341,342,342,343,343,343,344,344,345,347,347,346,347,346,346,346,348,351,356,356,357,358,359,358,358,358,354,351,347,345,342,341,340,342,344,348,365,386,396,400,398,335,230,179,192,230,267,292,308,327,347,362,367,370,372,376,380,381,381,383,384,387,388,390,392,396,399,401,404,407,409,411,412,412,413,413,410,409,406,402,396,391,384,374,367,362,356,350,347,343,341,340,339,536,352,346,,339,340,343,343,344,349,369,389,399,405,394,314,219,183,198,235,270,293,312,333,354,365,370,372,376,377,380,381,382,384,388,391,392,396,399,400,402,405,407,410,411,413,415,415,416,415,415,412,