313
327
343
360
369
373
376
378
379
380
382
384
385
388
390
392
394
395
397
398
401
403
405
407
409
409
409
409
407
406
403
399
393
387
381
374
367
362
357
353
349
347
345
344
343
343
343
343
342
343
342
342
342
342
343
344
344
344
345
346
346
345
345
346
347
349
349
350
352
355
356
356
357
357
358
358
360
357
354
350
346
344
344
343
342
343
344
346
363
388
400
400
397
354
255
193
201
239
272
293
307
326
344
360
368
372
374
374
376
378
380
381
383
386
387
389
391
394
397
398
400
402
404
405
407
408
407
408
406
404
402
400
393
386
378
370
365
359
354
350
346
343
342
339
337
338
337
335
335
336
336
336
337
337
338
337
338
340
341
341
341
341
342
343
343
343
343
344
345
345
348
351
352
351
353
353
354
355
356
353
348
345
344
340
341
341
341
340
343
349
371
392
400
401
390
321
229
196
214
249
278
299
315
335
355
368
373
377
378
381
382
383
386
386
389
391
392
394
398
400
402
404
407
409
411
411
414
414
413
413
412
411
409
404
398
390
383
376
368
360
355
351
347
344
343
341
340
340
340
339
339
339
338
339
339
340
342
342
341
341
342
343
343
344
344
344
345
345
347
347
346
346
348
351
353
354
355
355
356
359
360
359
354
349
348
346
344
345
345
345
346
348
356
377
394
403
409
399
320
232
204
223
254
284
303
319
338
358
370
374
377
378
380
383
384
385
388
390
390
392
394
397
399
402
403
405
406
409
409
410
411
412
410
409
408
406
401
395
388
381
375
369
363
357
352
348
346
344
343
343
343
342
341
342
342
343
343
343
343
344
346
346
345
348
348
347
346
348
349
349
349
348
347
348
350
351
353
356
355
354
356
357
360
360
359
356
351
347
346
347
347
346
347
348
348
357
380
402
410
415
412
346
248
194
208
249
281
305
317
329
346
365
376
379
380
383
384
384
387
390
392
391
393
397
398
400
402
404
406
409
408
409
410
411
412
410
408
406
404
400
395
389
384
376
370
365
360
355
352
351
348
346
345
343
344
343
344
343
342
341
342
343
344
345
346
345
345
346
346
345
345
344
343
343
343
343
343
345
348
349
348
349
350
349
350
351
349
346
341
337
335
336
336
336
335
335
338
350
373
389
397
402
393
317
222
184
204
243
274
295
304
317
333
350
359
362
363
365
368
368
369
371
373
375
375
377
381
381
383
384
385
386
389
390
390
390
389
388
386
384
382
378
374
369
364
359
355
350
346
341
340
337
334
334
334
333
333
333
332
332
334
335
334
334
335
335
335
337
338
338
338
340
341
340
341
342
342
345
350
350
348
349
349
350
351
352
350
348
344
339
339
340
340
340
342
342
345
359
382
397
402
405
380
292
212
196
227
266
295
311
317
330
348
363
368
371
374
373
375
378
380
381
383
384
385
386
388
390
393
394
395
398
400
400
401
401
401
399
398
395
392
388
385
379
373
369
365
359
356
353
351
351
349
349
348
346
347
348
347
346
347
347
347
349
350
351
351
352
353
354
355
355
355
356
357
359
360
363
362
362
363
364
366
366
365
363
360
356
351
351
352
352
351
351
352
362
384
401
407
409
405
338
244
205
225
264
292
315
326
337
351
367
378
380
380
382
385
387
390
390
393
393
394
395
395
398
401
402
403
405
406
407
406
407
406
405
405
404
400
397
392
385
380
373
368
364
360
358
355
353
351
351
349
349
348
348
348
347
346
348
347
348
349
349
349
350
351
351
352
355
354
354
354
355
356
358
361
362
360
361
362
364
363
363
361
358
354
351
349
349
349
348
349
348
353
373
393
401
402
401
347
251
201
220
255
282
305
318
332
347
365
373
376
378
378
380
381
382
384
386
387
389
391
393
395
397
399
400
401
403
406
407
408
409
408
407
404
401
398
392
387
381
373
368
362
357
353
349
347
345
343
344
344
343
342
342
342
341
342
343
343
343
345
346
344
345
346
347
346
347
347
347
348
350
351
351
355
357
358
358
358
360
359
360
359
355
350
347
347
346
345
345
345
346
349
368
390
401
400
397
350
252
197
210
247
277
299
314
330
348
365
372
374
377
378
380
381
384
385
386
387
389
391
394
394
397
398
400
402
404
406
407
409
410
408
406
406
404
400
394
387
380
374
368
362
356
352
348
345
343
342
341
341
341
341
341
341
343
343
343
343
343
342
344
347
347
346
347
347
347
348
348
349
350
349
349
349
350
352
355
355
355
356
357
359
361
361
356
351
348
347
346
345
344
346
346
345
351
372
393
404
405
401
338
241
198
215
249
278
299
313
331
351
367
373
375
377
379
380
381
384
386
387
389
392
394
397
399
401
401
403
406
408
408
409
412
412
412
410
408
406
401
395
388
382
375
368
362
356
351
348
346
343
342
340
341
341
339
340
341
342
341
341
341
341
343
342
344
344
344
345
346
346
347
347
348
348
347
349
350
350
350
353
355
353
353
353
355
358
360
356
352
349
346
342
342
341
342
342
344
345
358
383
400
404
403
376
284
203
193
224
261
287
306
324
342
361
372
375
376
378
380
382
384
385
387
389
391
392
395
398
400
401
404
406
408
408
410
410
411
412
412
410
408
405
399
392
387
380
374
368
360
355
350
348
346
344
342
341
340
340
340
342
341
340
341
342
343
343
342
343
345
344
345
345
345
346
347
346
346
348
347
347
348
347
348
349
352
355
355
355
356
356
359
361
358
354
349
346
344
343
344
345
344
344
346
352
373
393
403
409
406
341
245
200
211
245
275
299
313
332
352
367
373
375
377
380
383
383
385
386
390
392
392
394
397
398
399
401
402
403
404
406
408
409
409
409
408
407
405
401
396
389
382
376
369
364
358
354
349
348
345
345
344
343
342
342
342
341
342
344
343
345
344
344
346
347
347
346
347
348
347
346
348
349
348
348
348
347
346
347
348
349
353
355
353
353
354
357
358
358
356
352
347
345
344
344
345
345
346
347
350
365
387
402
410
417
398
312
219
191
220
260
288
306
314
331
351
365
373
376
377
379
380
383
384
384
385
388
389
391
392
393
395
396
396
398
400
402
401
400
402
401
399
397
394
391
385
379
374
371
366
361
356
352
350
347
347
346
345
344
344
343
342
342
342
342
342
344
345
345
345
346
346
346
347
347
346
346
346
346
346
347
348
347
347
349
351
352
352
351
351
353
354
354
353
349
344
340
338
339
341
342
339
339
341
353
376
394
401
406
399
325
230
189
206
246
276
297
307
319
335
352
361
364
365
366
368
370
370
372
374
375
376
378
379
380
382
385
387
386
387
388
387
389
389
386
385
382
381
377
372
366
363
357
352
348
344
340
338
335
332
331
329
330
331
329
329
329
329
330
328
328
331
331
331
332
333
333
335
334
335
335
337
338
338
338
339
342
342
343
342
343
343
343
344
346
346
341
337
334
333
331
333
334
333
332
335
348
371
386
394
399
391
321
228
187
203
242
272
294
305
314
330
347
357
360
362
364
365
367
370
372
372
375
376
377
378
381
383
385
386
387
388
391
390
390
391
390
389
387
385
383
378
372
367
362
357
353
348
346
344
342
340
339
340
339
339
339
340
339
339
339
339
341
341
342
343
345
347
346
347
348
348
347
348
350
349
351
353
356
356
355
356
359
359
359
360
357
352
349
346
342
342
345
346
347
346
345
346
347
347
347
347
348
348
350
352
354
356
355
356
356
357
358
360
356
351
347
345
343
343
343
343
342
342
345
364
388
402
403
403
358
259
198
204
240
273
295
311
328
348
364
370
374
375
377
378
380
381
383
386
387
389
393
394
396
398
400
401
404
405
407
408
410
410
409
408
407
404
401
396
389
383
376
369
363
356
350
347
344
342
341
340
339
338
338
339
339
339
341
341
342
342
343
344
344
345
344
346
347
347
347
346
346
346
347
347
347
348
349
349
349
350
354
355
354
356
356
356
358
360
356
352
455
345
345
64
347
348
347
347
349
348
349
350
352
351
351
352
351
351
351
351
350
350
351
349
349
348
349
352
353
354
353
354
355
358
359
359
357
353
350
347
348
348
348
347
347
347
349
366
391
407
413
419
404
321
231
201
226
263
289
306
315
329
347
364
372
372
373
375
377
378
380
381
382
385
387
390
390
390
394
395
394
397
399
398
398
399
400
399
397
394
389
386
384
380
375
368
363
359
355
352
348
345
343
343
342
342
341
341
341
341
341
341
340
342
343
343
343
344
344
346
346
345
347
347
347
346
346
348
348
348
346
347
347
347
8
357
355
45
344
344
346
354
377
398
407
409
407
343
243
200
219
256
283
304
316
333
350
367
373
376
376
377
381
383
385
386
387
389
390
392
395
396
398
399
402
404
405
406
409
411
410
410
409
407
403
398
393
385
378
372
366
359
354
351
347
345
344
342
340
339
341
341
340
340
340
341
341
341
342
342
342
342
344
344
345
345
346
346
346
347
347
347
347
349
348
348
349
349
348
350
352
354
352
353
354
355
356
358
357
352
350
346
344
345
345
346
345
346
348
359
385
405
412
413
396
309
221
203
232
265
288
305
317
335
355
369
373
375
336
338

390
298
217
201
222
252
277
295
312
333
352
363
367
369
370
372
374
376
379
381
382
385
387
388
389
393
393
396
397
401
403
404
407
408
407
406
406
403
401
398
392
386
378
371
365
358
352
349
344
340
337
336
336
336
335
335
335
334
335
335
336
337
338
338
338
338
339
340
340
341
341
340
342
343
344
343
343
343
342
342
343
342
342
342
344
344
342
342
343
342
343
343
342
344
345
345
344
346
349
350
349
350
353
357
360
357
351
347
346
344
343
344
345
345
345
346
351
372
397
409
413
419
386
294
219
212
242
272
291
306
345
362
384
385
387
388
391
392
392
394
396
397
399
402
404
406
407
408
407
407
406
403
402
398
392
386
380
374
368
364
358
356
352
350
348
347
345
345
344
346
346
345
344
345
346
346
346
345
346
345
346
347
346
347
348
349
350
351
350
350
352
351
350
351
351
351
352
352
354
355
356
357
356
358
359
360
361
361
358
354
350
348
348
348
348
348
348
348
353
373
399
411
415
414
380
283
209
209
242
272
294
310
322
339
356
369
373
376
378
378
380
383
385
384
385
389
391
392
393
395
398
398
400
402
404
407
407
409
408
406
405
403

315
314
316
317
318
318
318
318
319
319
321
323
323
324
324
325
325
324
326
325
325
323
322
321
322
323
323
324
324
325
324
325
325
326
328
332
334
335
335
336
337
338
340
337
331
328
325
324
325
325
327
326
326
327
341
369
389
394
394
368
276
195
184
210
241
265
286
302
322
342
353
358
360
363
365
367
368
369
371
375
376
377
380
383
385
387
389
393
395
396
398
399
399
400
400
400
398
397
394
390
383
376
368
361
355
348
343
339
337
337
335
335
335
334
334
333
334
335
334
335
336
337
337
338
339
341
342
343
344
345
345
346
3
361
361
36
367
369
372
373
370
366
362
359
360
360
359
359
360
359
362
380
404
418
424
431
418
338
251
221
240
275
299
317
327
341
359
375
383
386
387
388
390
392
394
395
396
396
398
400
401
404
405
405
408
411
410
411
412
414
415
413
411
409
405
401
397
392
386
379
373
369
365
362
358
355
352
352
350
350
352
350
348
347
347
347
348
349
349
350
351
352
352
352
353
352
354
355
354
355
355
354
353
352
353
354
355
356
355
355
354
353
355
359
360
357
358
360
361
362
364
363
358
354
353
351
350
351
352
352
352
353
368
392
409
417
423
356
345
345
345
346
347
350
371
398
409
412
414
369
267
202
209
243
271
293
307
324
343
361
371
374
375
377
379
380
382
383
385
388
390
392
394
396
397
399
401
404
405
408
410
411
412
412
412
411
409
404
400
392
384
378
371
365
358
354
350
346
342
341
339
338
338
338
338
340
340
339
338
338
340
340
340
340
341
341
341
343
342
342
343
344
345
345
346
345
345
345
346
346
346
346
347
346
345
346
349
352
353
354
355
354
355
358
358
353
349
345
342
342
343
343
344
343
344
347
368
396
410
411
411
360
256
198
208
241
268
290
372
366
346
344
344
344
343
343
342
342
342
342
343
343
344
345
344
345
346
347
347
349
349
348
348
348
348
349
349
350
351
349
350
349
349
349
351
354
356
355
356
355
356
358
361
360
356
351
349
348
347
348
349
348
348
349
358
381
401
412
419
420
362
265
209
214
250
279
302
315
324
341
356
368
374
377
380
381
381
384
385
387
387
387
390
391
392
395
397
397
400
403
404
404
405
406
405
405
404
402
399
393
387
383
377
370
366
361
356
353
351
348
347
348
347
346
345
346
345
345
344
343
342
344
344
345
346
345
347
348
348
347
2
254
201
218
345
361
372
374
375
377
378
380
384
386
387
389
388
391
394
396
398
399
400
402
405
406
408
409
410
410
409
407
404
401
396
389
382
376
369
362
357
353
350
347
346
345
345
344
342
343
343
343
344
344
344
344
343
343
344
345
344
345
346
347
347
347
348
349
349
348
349
351
352
352
353
355
358
357
357
359
359
360
362
362
358
353
351
348
347
348
347
348
348
348
355
377
398
406
407
406
338
240
201
222
257
282
303
316
332
349
365
372
375
377
379
382
383
384
387
388
390
392
394
395
399
400
402
405
406
408
412
412
413
414
340
340
346
346
346
345
347
351
352
353
354
353
356
360
359
355
351
349
345
344
345
344
345
346
345
346
357
381
400
409
416
406
326
234
205
222
253
280
302
316
335
356
370
375
377
378
380
383
384
385
387
388
391
393
395
395
398
401
404
404
406
408
409
410
412
412
412
413
411
408
405
400
394
387
380
372
365
358
353
349
346
344
343
341
340
340
339
339
340
340
340
340
341
341
340
341
342
343
343
343
343
342
343
346
345
345
345
347
346
346
346
346
345
346
347
346
346
346
347
351
353
351
352
353
354
356
358
356
353
349
345
344
304
376
378
379
381
383
383
384
385
387
389
390
392
394
396
397
399
401
401
402
403
403
401
399
398
394
389
384
378
372
367
363
358
354
350
348
346
345
345
345
344
344
345
343
343
344
344
344
345
345
346
347
347
346
345
347
350
350
350
349
348
350
351
352
353
355
357
358
356
357
358
358
359
359
355
351
347
346
346
346
347
346
346
347
360
382
397
403
408
398
321
227
197
218
255
282
304
317
331
348
364
371
373
374
375
378
381
382
383
385
387
388
389
390
393
395
396
399
401
401
402
404
405
404
404
403
402
400
396
390
384
37
198
226
369
372
373
374
375
378
380
383
385
386
387
389
392
393
395
398
400
401
404
405
407
408
410
411
410
409
408
405
401
396
389
381
374
367
359
354
350
347
343
342
341
339
338
337
337
336
337
338
338
338
339
340
341
341
341
341
343
344
343
345
345
345
344
344
346
345
345
346
347
346
348
348
350
353
354
355
355
354
358
359
359
356
350
346
344
343
344
344
344
344
345
352
374
394
403
409
407
343
244
200
213
247
275
299
314
334
354
370
375
377
377
379
381
382
384
386
388
391
393
395
397
400
403
404
405
407
409
411
412
414

345
44
345
345
345
345
346
346
348
350
350
350
350
352
352
352
352
353
352
352
354
354
353
355
358
359
358
359
359
360
362
363
361
360
354
351
349
350
349
350
350
351
355
367
387
406
415
420
417
346
250
204
218
257
287
309
319
329
347
363
372
375
376
377
378
380
382
384
385
386
387
390
390
391
393
395
396
398
401
402
402
404
405
406
404
401
400
396
391
386
381
375
370
365
362
359
354
353
352
349
350
350
349
348
348
349
348
347
346
346
347
348
348
348
350
350
351
351
350
349
351
352
352
350
350
352
352
355
357
357
356
355
348
366
194
205
244
275
296
311
329
347
363
370
373
374
376
379
382
383
384
386
388
390
390
393
396
399
401
403
404
406
409
410
411
412
412
412
410
408
404
397
390
384
376
369
363
358
352
350
346
343
340
340
339
339
339
338
339
340
341
340
340
340
342
342
342
343
342
343
343
345
344
345
346
346
347
347
348
348
347
348
352
354
355
356
354
352
355
358
358
353
349
346
343
341
341
342
342
342
343
349
370
391
401
404
400
335
236
196
213
249
278
300
314
332
352
367
373
374
376
377
379
380
381
383
386
388
389
391
393
395
398
401
493
400
401
405
402
398
394
388
384
378
371
365
362
357
352
348
345
346
344
343
343
344
344
343
345
343
343
343
344
342
344
344
345
348
349
349
349
349
349
349
348
349
351
350
350
351
352
352
353
356
357
356
355
356
356
358
360
358
354
351
349
347
346
346
346
346
346
346
352
371
394
405
414
418
379
282
208
201
236
271
297
312
321
339
357
371
375
376
378
380
381
382
384
385
387
387
389
391
392
394
396
398
399
400
402
402
403
405
404
404
403
401
399
394
388
383
378
372
367
362
359
353
350
349
348
347
347
345
345
347
347
344
343

194
363
371
373
374
374
376
379
383
383
385
388
390
392
393
396
398
398
399
400
403
405
408
409
409
410
409
408
405
401
396
388
382
376
369
363
357
353
350
346
343
343
343
341
341
341
341
341
341
340
341
341
341
341
342
343
342
343
344
344
345
345
346
346
345
346
347
348
349
349
353
356
356
356
357
358
358
358
357
352
349
345
344
343
344
344
344
344
346
359
384
398
403
404
375
280
204
197
232
265
290
306
322
341
361
371
372
374
376
378
380
381
383
384
386
388
391
392
394
397
399
400
404
405
407
409
410
412
413
412
411
409
408
403
350
346
344
343
342
341
340
340
340
342
342
341
341
341
342
344
345
345
346
346
345
345
347
348
348
348
350
350
349
349
349
351
352
354
355
353
354
356
357
358
358
357
353
348
345
344
346
347
345
345
345
349
366
388
402
413
420
392
300
214
192
222
261
290
306
315
333
354
368
375
377
378
379
380
383
385
386
387
388
390
392
395
396
398
399
401
403
404
406
408
406
405
405
405
403
400
397
393
385
381
375
368
363
358
353
350
348
348
345
344
344
344
344
344
344
345
344
344
345
346
345
346
346
347
349
349
349
349
347
350
376
378
391
392
395
395
397
399
