349
350
348
349
351
350
350
352
353
351
350
353
355
354
355
357
359
356
356
358
360
361
361
363
359
354
351
348
346
346
347
348
347
348
359
380
397
407
412
405
336
242
202
219
260
291
312
319
331
346
363
373
375
375
374
376
379
380
382
384
385
385
387
389
392
391
393
394
395
397
397
398
398
397
395
393
391
389
386
381
375
372
369
360
358
356
352
349
349
347
347
346
345
345
344
345
345
346
345
344
344
345
346
346
346
348
350
350
350
350
351
349
350
352
352
354
357
359
356
357
358
358
359
358
356
353
350
347
344
345
345
345
346
347
352
371
391
399
402
401
346
247
194
207
248
279
303
316
328
343
359
368
370
370
374
375
376
377
380
381
382
384
387
388
390
391
394
394
395
396
396
399
399
397
397
395
392
390
386
384
379
373
367
363
358
354
351
349
347
345
345
345
345
343
343
344
344
344
345
345
345
346
347
347
349
349
349
349
349
349
349
350
351
351
353
355
357
357
359
359
361
361
361
362
357
354
349
347
347
346
346
348
348
351
368
389
398
399
397
341
241
190
210
252
285
307
321
337
353
367
373
376
377
379
381
382
384
385
387
389
389
394
394
397
398
398
400
402
403
404
404
405
406
405
404
402
398
395
390
384
378
373
366
360
355
353
350
348
347
345
344
345
345
344
343
344
344
345
346
346
346
345
348
349
348
348
349
349
348
350
350
349
351
352
354
355
357
357
359
359
360
361
363
360
356
352
349
348
348
347
347
347
349
354
374
393
399
398
386
314
221
190
219
260
292
311
324
340
357
369
374
378
379
378
380
383
385
387
387
389
392
394
395
397
399
403
405
406
406
407
408
409
410
408
407
405
402
396
391
384
378
373
366
360
356
353
349
347
345
344
344
344
344
344
344
345
346
346
345
345
347
346
347
346
347
348
348
348
348
349
350
351
350
350
352
353
354
354
357
357
358
359
360
357
353
351
348
347
346
345
345
345
344
348
365
385
395
400
402
350
252
197
208
244
275
300
315
331
349
365
371
373
374
377
378
381
382
383
384
384
388
391
393
394
396
399
398
399
402
405
405
404
403
405
403
401
400
397
391
384
379
372
366
360
355
352
349
347
344
343
343
343
343
342
342
341
341
341
341
343
342
342
344
343
344
345
345
346
347
346
347
347
347
347
349
352
354
354
353
354
355
357
357
357
353
348
344
343
342
343
344
344
344
346
359
380
395
402
408
386
295
207
190
223
260
290
308
319
336
353
365
370
372
374
376
377
378
380
383
383
384
387
388
390
392
393
395
397
397
398
400
399
399
400
400
399
397
393
390
385
381
376
371
366
361
357
355
353
350
348
348
347
346
347
347
345
346
349
347
348
349
350
348
349
349
350
351
353
354
352
351
350
352
355
357
357
358
359
361
363
363
362
359
353
350
348
346
347
346
346
348
349
360
383
401
409
416
405
324
230
192
216
257
289
311
319
330
348
365
370
371
374
375
376
377
380
380
382
385
385
386
386
388
390
393
395
397
398
398
399
399
396
397
395
392
389
386
382
375
370
365
362
357
353
351
347
345
346
345
345
345
344
343
342
343
344
344
343
343
344
345
347
348
349
348
348
349
351
352
353
354
358
358
359
359
359
361
362
363
361
355
350
346
347
347
347
347
345
346
356
376
395
404
410
407
342
245
195
208
248
282
305
316
328
344
359
369
371
372
372
374
377
379
380
382
384
386
385
386
388
390
391
392
394
395
396
395
396
396
394
392
391
388
384
379
375
370
367
362
359
355
350
349
348
347
345
346
347
344
344
342
344
343
343
344
345
345
346
347
349
348
349
349
349
351
352
353
355
356
357
358
359
360
360
361
361
358
352
349
348
349
348
347
347
348
352
371
390
397
398
396
336
237
188
209
250
282
306
321
335
351
366
371
374
376
375
378
380
383
383
384
387
390
390
391
394
395
397
399
401
402
402
403
402
401
402
403
400
396
390
384
380
374
369
362
357
353
350
345
344
342
344
345
344
343
344
344
345
346
345
346
347
349
347
347
348
349
348
349
350
349
351
353
355
357
358
359
361
360
360
363
361
358
354
351
346
346
346
346
347
347
351
368
390
399
400
396
347
247
187
202
245
282
307
321
337
354
369
375
377
377
378
379
382
385
387
387
388
390
391
393
396
397
399
401
404
404
406
408
406
406
405
405
403
400
395
389
383
378
371
366
360
355
352
349
347
345
344
343
342
343
345
345
344
344
345
345
345
346
347
349
348
348
350
350
351
351
350
350
352
354
355
356
358
359
359
360
361
361
358
354
349
347
345
345
346
345
345
346
355
376
393
397
403
387
302
214
193
222
260
291
310
325
343
360
370
373
376
378
379
379
381
384
385
386
389
391
393
394
398
399
400
401
402
404
406
407
407
408
406
404
403
399
393
387
381
374
368
363
357
352
349
346
345
342
342
342
340
341
340
341
340
339
343
344
342
341
343
343
344
344
344
346
346
346
348
348
349
349
351
352
351
352
354
354
355
356
352
349
345
343
342
343
342
343
343
346
359
380
397
404
408
380
286
202
188
223
260
290
307
320
338
355
367
371
372
371
374
375
377
379
380
383
383
385
386
387
390
391
393
396
398
398
398
398
396
396
396
394
393
391
386
381
376
371
367
362
357
354
351
349
347
345
345
343
342
343
344
343
342
343
344
344
345
345
347
347
347
347
349
350
349
349
349
351
353
356
357
359
356
355
357
359
358
357
353
350
346
346
348
346
346
347
348
357
378
395
405
411
407
337
239
193
209
250
283
307
317
329
346
360
369
373
374
374
377
378
379
380
382
384
387
386
387
388
390
391
392
395
396
395
395
395
393
394
394
393
388
385
383
379
372
367
364
359
354
352
350
348
348
348
346
345
347
346
345
345
345
345
346
344
346
348
349
349
349
349
349
351
352
352
353
356
359
359
358
357
359
360
361
360
357
355
352
348
348
347
347
348
347
348
358
381
399
408
413
408
341
245
200
212
253
286
310
320
328
343
359
366
371
372
373
374
377
379
395
394
396
397
395
392
390
387
382
377
372
366
361
358
355
351
348
347
346
345
345
344
344
345
346
344
345
346
346
345
345
345
346
347
348
350
350
349
349
351
351
354
357
357
356
356
359
360
360
361
357
353
350
348
348
346
348
348
348
350
365
385
395
399
401
365
265
196
202
241
275
302
317
330
344
360
369
373
374
375
376
376
377
380
382
384
386
388
391
392
395
396
397
399
400
401
403
403
402
402
401
400
396
392
387
380
375
369
362
358
353
350
348
346
345
344
344
343
344
343
344
344
345
346
345
346
347
346
346
346
347
349
350
376
377
17
392
392
394
396
397
397
397
397
395
393
392
390
387
381
376
372
368
362
358
354
350
348
347
345
345
344
344
345
346
344
344
345
344
344
346
347
348
350
350
350
350
349
351
350
351
352
353
353
352
352
355
358
360
357
357
359
357
359
360
360
356
353
349
347
347
349
350
347
348
350
363
384
401
408
414
406
336
245
206
224
264
293
313
322
330
346
362
370
373
373
375
377
378
379
381
383
383
384
386
388
388
389
391
392
394
395
397
399
398
398
397
396
393
389
385
381
375
371
366
362
358
354
353
351
350
349
348
346
347
345
386
388
360
408
409
409
408
406
405
403
400
394
387
381
375
368
361
355
352
348
345
343
343
341
340
340
340
341
341
343
341
341
343
342
341
343
344
344
344
344
343
342
343
345
345
345
345
346
346
347
348
351
354
353
353
354
354
355
356
356
353
349
344
343
344
344
345
345
344
344
355
379
396
404
410
399
323
229
195
218
256
284
304
315
329
345
361
369
373
374
376
377
376
378
380
381
384
386
386
388
391
390
392
394
395
396
397
400
401
400
399
399
397
393
388
384
380
374
369
364
360
355
353
350
349
348
347
346
343
343
344
343
343
3
313
328
376
378
381
384
385
386
386
388
391
394
396
397
400
402
403
404
406
406
407
408
407
407
406
404
400
394
387
382
374
368
361
357
353
350
346
344
344
343
343
343
342
342
342
343
342
343
342
343
344
344
344
346
346
345
345
346
348
346
347
347
348
349
352
354
355
357
358
359
359
360
358
354
350
346
343
343
343
344
345
344
349
367
386
394
396
392
334
236
192
210
249
279
303
317
334
353
369
373
374
377
378
380
382
384
385
386
389
392
394
396
398
400
401
405
406
407
406
408
410
410
409
407
405
402
398
392
386
379
373
368
373
375
317
384
386
387
387
389
392
395
395
396
397
397
398
399
399
397
396
394
389
385
379
374
370
366
361
358
355
353
349
349
349
347
347
345
346
346
345
345
345
346
346
347
348
348
346
346
347
347
348
349
350
351
352
356
357
358
358
358
359
360
362
360
358
354
351
348
348
348
347
346
347
352
369
388
395
398
398
344
245
192
206
246
279
304
317
331
347
361
369
372
374
375
377
377
378
382
383
385
386
387
389
391
392
394
396
398
399
400
400
402
401
399
398
397
394
388
380
375
370
364
360
356
353
349
348
345
344
343
344
345
344
386
398
400
404
406
406
407
409
410
410
409
408
405
402
398
392
385
378
372
366
360
354
350
347
344
344
343
341
341
340
340
341
341
342
342
343
344
343
344
345
345
345
345
345
345
346
347
349
349
349
350
352
354
355
356
357
357
359
360
356
351
347
344
343
344
344
345
344
347
362
383
394
401
406
366
271
204
202
233
268
296
313
329
347
364
372
374
374
375
377
380
382
384
386
387
390
391
393
397
399
400
402
402
404
404
405
407
406
406
405
402
400
398
393
388
380
372
366
362
357
352
348
347
345
344
342
343
343
343
342
342
348
380
383

393
394
396
396
396
397
398
397
395
393
389
384
381
376
372
367
362
358
354
350
347
347
345
346
345
345
346
345
346
345
343
343
344
344
345
346
345
346
346
346
346
348
350
351
351
351
353
356
355
354
354
356
358
357
358
355
353
350
346
345
347
347
346
346
347
354
375
392
399
402
402
341
243
196
211
249
280
305
319
332
347
361
370
372
374
375
376
378
380
380
383
384
386
387
387
389
391
392
395
396
398
400
399
399
399
398
397
394
391
386
381
376
371
365
359
356
354
350
348
346
345
345
344
344
344
344
345
345
344
391
393
07
408
409
410
409
409
408
407
404
399
392
384
378
371
365
358
353
350
348
347
345
343
341
340
341
341
341
342
342
342
341
343
343
343
343
344
345
346
347
347
347
347
347
349
349
349
350
352
354
355
356
356
356
357
358
359
360
356
350
347
345
344
343
343
345
345
346
356
376
389
396
403
384
298
220
207
231
264
292
310
324
342
361
370
375
377
378
380
381
383
385
388
389
389
391
393
395
399
400
401
403
404
407
409
410
410
410
409
407
404
400
396
389
382
376
369
363
358
355
349
347
346
343
341
340
341
340
340
340
343
342
363
268
316
325
342
357
367
372
373
373
376
377
379
380
381
383
384
387
389
388
391
392
392
394
394
395
397
399
399
398
396
393
391
388
383
377
372
367
364
358
353
350
348
346
346
345
343
342
343
343
343
343
343
344
345
345
345
345
346
349
350
349
349
350
350
350
351
353
352
351
355
357
358
359
358
358
359
359
360
360
358
354
350
347
346
347
347
346
347
348
356
376
393
401
405
404
340
243
198
215
254
284
307
318
331
346
362
371
373
373
374
377
379
380
382
383
384
386
389
390
391
394
396
397
398
400
401
401
402
402
400
400

344
346
396
350
252
196
206
244
276
300
316
333
350
367
373
375
377
377
379
381
382
384
385
387
391
392
394
397
399
401
403
405
406
407
407
409
410
410
409
408
404
397
392
386
379
371
365
362
354
348
346
345
343
342
342
340
340
340
341
343
342
342
344
345
345
346
346
346
348
347
347
348
349
350
349
349
349
348
349
351
351
355
356
356
356
356
356
358
358
356
352
348
345
343
344
344
343
343
344
349
366
385
396
400
400
346
251
201
212
245
276
301
315
332
350
365
372
374
375
377
378
380
382
382
384
386
388
390
392
392
394
397
405
344
342
345
347
347
348
348
348
348
349
350
352
352
353
355
356
358
357
355
356
360
360
359
356
354
350
347
346
346
346
347
346
346
352
372
390
397
402
405
358
262
200
205
243
276
302
316
326
340
356
368
370
372
375
376
377
379
380
381
382
383
385
388
390
390
391
394
395
396
396
400
400
399
398
398
395
392
387
381
375
371
367
363
357
353
350
349
348
345
345
344
343
343
343
343
343
343
343
343
345
346
346
345
345
345
347
347
348
348
350
351
352
354
356
358
358
359
360
362
362
361
359
355
353
351
348
348
347
346
347
349
356

343
344
355
355
355
354
355
358
358
357
355
351
349
344
342
343
345
346
346
347
356
378
396
406
413
407
334
238
192
207
250
284
306
316
328
346
361
368
371
374
376
376
380
380
383
385
387
388
390
391
393
394
397
399
398
400
400
400
400
400
399
398
396
392
387
380
376
372
368
363
360
356
353
350
348
347
346
346
345
345
344
344
344
345
344
345
348
349
348
349
349
350
349
350
350
350
352
353
358
360
360
360
360
360
360
361
359
357
354
351
347
347
349
349
348
347
351
366
388
401
408
413
390
305
223
200
227
268
298
316
322
337
15
411
413

394
388
380
372
366
361
355
350
348
347
345
344
343
345
343
343
342
343
343
344
345
345
346
345
345
345
346
346
348
348
348
349
350
350
349
350
350
352
354
356
355
357
358
359
359
359
357
352
349
345
344
344
346
345
346
347
354
371
389
397
402
396
325
234
202
222
256
286
309
323
340
360
370
373
375
376
378
379
383
384
384
386
388
390
392
394
396
400
403
404
406
408
407
409
409
411
409
407
405
402
396
390
384
377
369
363
357
352
348
347
343
341
340
339
339
338
339
340
338
339
341
341
341
341
342
343
344
344
344
385
387
3
393
395
396
397
398
395
395
393
390
387
382
378
373
368
363
360
356
353
351
349
348
347
345
344
345
344
343
343
343
345
346
346
347
348
349
349
348
349
349
350
351
352
352
354
357
357
357
357
358
360
360
361
358
354
350
346
345
346
345
345
346
346
351
369
388
400
406
408
364
269
201
200
237
276
304
316
325
341
357
368
372
374
376
376
378
380
382
382
384
386
388
389
390
393
394
395
397
398
400
400
399
399
397
396
393
391
388
383
377
372
366
361
356
353
350
348
346
343
343
345
345
344
344
344
344
344
344
345
344
345
389
390
403
405
408
409
409
409
410
412
412
411
408
406
402
396
387
380
374
367
361
356
352
349
347
345
344
343
342
343
343
343
343
343
344
344
345
345
344
345
345
345
345
347
347
349
350
352
352
353
355
357
359
359
358
358
360
359
354
352
348
344
343
343
343
344
344
348
365
385
392
395
393
331
232
187
205
242
277
303
319
336
356
369
374
375
377
379
380
382
385
386
388
388
390
392
394
397
399
401
403
406
408
409
409
411
410
410
408
406
403
399
392
385
378
370
363
357
352
350
347
343
341
341
340
339
339
340
340
339
339
341
3
356
352
45
346
347
345
345
346
346
347
348
349
351
351
352
355
357
357
358
357
359
362
363
361
357
354
352
349
348
347
347
347
347
356
377
393
398
401
398
330
231
190
211
252
285
311
323
336
352
367
374
376
376
378
380
382
383
383
386
389
390
391
393
394
395
397
399
403
404
403
403
405
405
404
402
399
395
391
385
378
371
366
361
357
353
353
349
347
345
346
345
345
344
345
344
345
346
346
346
346
347
347
346
346
348
349
350
351
352
354
356
358
359
359
359
359
361
360
356
352
350
347
346
344
344
344
346
358
380
395
396
397
374
398
385
379
374
369
365
359
355
353
352
347
345
344
345
345
343
343
342
344
343
343
343
342
345
345
346
346
347
347
348
348
349
349
350
350
354
356
357
357
357
359
359
359
360
358
355
351
348
347
348
347
347
347
347
356
376
395
404
412
414
356
259
201
204
243
278
305
318
327
341
356
368
372
373
375
376
377
379
381
383
383
384
387
389
392
391
390
393
395
397
397
399
399
396
396
397
394
392
387
381
376
371
367
362
357
354
350
347
345
344
344
344
343
343
344
343
343
343
343
344
344
346
345
345
346
346
348
350
350
350
351
351
202
237
27
373
375
377
380
381
382
384
386
387
389
393
396
398
400
402
404
406
407
410
412
414
414
413
412
412
411
408
402
396
389
381
375
369
362
357
354
350
347
346
346
345
343
343
342
342
342
342
343
343
342
342
343
344
344
346
346
345
345
346
347
346
