384
387
387
390
391
393
395
397
397
399
401
403
405
406
407
408
407
408
409
406
403
403
401
395
390
385
378
373
367
361
358
354
352
350
347
347
346
345
344
343
344
345
346
346
345
347
349
350
349
350
350
351
352
351
350
350
350
350
349
350
350
350
349
348
347
348
350
349
350
349
349
352
354
355
355
357
357
360
360
360
357
353
350
348
348
348
348
347
348
349
355
379
402
411
414
415
367
277
221
226
260
283
300
313
325
340
357
368
372
373
374
377
379
380
382
384
383
385
388
389
390
391
395
395
397
398
400
399
400
400
399
397
396
393
391
386
380
373
368
365
361
357
352
351
348
347
345
344
342
343
343
342
342
342
341
342
343
345
346
347
348
348
348
348
349
350
348
348
349
350
349
348
348
348
348
348
347
347
347
349
350
351
352
351
352
352
352
355
356
354
351
349
346
345
347
348
349
349
349
356
378
401
412
416
421
382
293
229
228
260
286
304
319
329
342
358
370
376
377
378
380
379
381
382
384
385
384
388
390
393
394
395
398
402
402
401
402
401
402
401
400
397
395
394
389
384
380
375
369
366
361
357
354
353
351
351
349
349
349
348
348
348
348
347
348
350
350
350
351
351
351
352
352
353
353
353
354
355
353
355
355
354
354
352
352
356
358
359
358
360
359
360
361
363
362
358
354
352
350
350
350
351
350
350
352
367
392
411
418
419
408
336
249
219
241
273
293
311
322
335
349
363
371
373
374
374
376
379
381
381
382
385
386
387
391
391
392
395
396
396
397
400
400
399
398
396
394
392
386
382
377
372
367
361
356
352
348
346
343
343
342
341
340
340
338
338
340
340
339
339
340
341
341
342
342
342
343
344
344
344
345
346
348
347
348
348
349
349
348
349
350
352
353
353
353
354
354
356
356
353
350
346
344
343
343
343
342
343
343
349
373
401
411
411
408
354
256
207
221
253
277
296
310
325
342
358
367
368
371
373
375
377
379
381
381
383
386
388
389
391
394
396
398
400
402
402
404
405
403
402
401
398
395
391
386
377
371
365
360
355
350
346
343
341
340
339
338
337
338
338
336
336
338
338
340
341
341
341
343
345
345
344
344
344
345
345
345
346
346
346
345
346
349
348
348
348
349
352
354
353
354
354
356
357
358
355
351
348
346
345
344
345
345
345
346
352
376
403
413
414
410
349
253
214
226
254
277
298
314
333
352
366
366
364
364
365
368
373
375
376
378
381
384
387
390
394
396
398
402
405
405
406
408
409
408
409
408
406
402
398
392
385
379
373
366
361
356
351
349
347
346
345
344
344
343
342
341
342
343
343
343
344
344
345
346
347
347
347
348
349
348
349
350
350
350
351
350
350
350
349
349
350
350
350
350
352
355
355
354
355
355
357
360
360
357
352
349
346
347
347
346
346
347
348
353
375
403
417
417
413
360
264
217
223
250
276
297
312
332
352
368
374
376
378
380
382
384
385
387
389
392
394
396
398
400
401
403
405
408
411
413
414
414
415
414
413
412
407
402
397
389
382
376
369
363
357
351
350
348
345
343
343
342
341
340
341
340
341
341
341
342
341
342
343
343
342
343
345
345
346
345
346
348
348
348
347
347
348
347
347
347
348
347
347
348
347
349
351
353
354
355
355
357
360
361
357
353
349
347
344
344
344
346
346
346
349
368
396
411
417
420
378
283
225
223
243
269
292
311
330
350
368
375
377
379
380
382
383
385
388
391
393
394
397
399
402
403
404
406
408
410
412
414
414
415
414
413
410
409
404
399
392
384
378
371
365
359
354
350
348
345
344
342
341
340
340
340
340
339
340
341
342
342
342
343
343
343
344
344
344
344
344
345
344
344
345
345
345
344
344
345
344
344
344
345
345
343
345
346
348
349
348
349
350
353
353
352
349
345
342
340
340
340
340
339
340
342
355
380
397
404
407
400
326
237
207
225
255
277
296
308
323
339
355
362
364
365
366
367
368
370
372
373
375
377
378
379
381
382
383
385
387
387
388
389
389
388
388
386
384
381
376
371
364
359
353
349
344
339
336
333
331
330
328
327
326
324
324
324
325
325
326
327
329
328
329
330
330
330
331
333
333
333
334
332
331
331
332
331
331
332
332
331
332
332
332
334
336
338
337
337
339
341
343
344
345
340
336
332
331
332
331
332
334
332
334
348
372
390
399
404
400
336
246
206
220
253
276
294
305
316
334
349
359
362
365
367
367
368
370
371
375
377
378
380
382
383
385
388
390
391
393
395
396
395
395
394
393
391
388
384
378
374
369
365
359
355
352
348
346
343
342
341
340
338
338
338
338
338
339
341
341
342
343
344
345
345
346
346
347
347
348
349
348
349
348
348
348
348
350
350
350
349
348
348
352
354
355
355
355
356
357
358
360
359
355
350
347
347
348
348
348
349
349
353
372
398
412
416
420
397
312
235
224
249
277
296
313
321
336
352
365
372
374
377
379
379
381
384
383
386
389
390
392
393
395
398
399
402
404
404
406
408
408
407
407
405
403
396
393
388
382
376
372
368
363
360
357
356
354
352
352
352
350
349
349
348
348
349
349
350
351
352
352
353
354
354
355
355
356
358
357
355
355
355
356
357
356
357
357
357
356
357
360
360
361
360
363
363
365
366
367
364
361
358
356
354
355
356
356
354
355
362
385
411
422
424
424
383
291
230
235
265
289
307
321
334
351
366
376
379
381
383
385
387
388
389
393
394
395
397
399
400
402
403
406
410
411
411
412
412
411
410
409
407
403
399
393
388
381
375
370
365
361
358
356
353
352
351
350
350
350
350
350
349
348
348
348
349
349
350
351
351
352
353
353
354
355
355
355
356
357
356
356
355
357
357
358
357
357
356
356
358
359
361
361
362
362
364
364
365
362
358
355
352
350
350
351
351
352
352
357
379
405
419
421
422
380
285
226
228
256
281
301
315
330
349
366
373
375
378
379
381
382
384
387
389
391
393
395
396
398
400
402
405
406
408
410
411
412
413
412
409
408
405
400
394
387
380
373
368
362
356
352
349
348
346
344
344
344
343
341
342
343
343
344
344
344
345
345
346
346
346
347
347
348
348
348
349
349
349
349
350
350
349
349
349
349
349
349
348
348
349
350
349
348
349
352
355
354
356
357
359
361
361
357
351
349
347
347
346
347
346
346
345
348
366
396
412
416
417
391
304
233
224
243
269
289
305
323
342
359
368
372
373
375
378
380
382
383
385
389
389
391
394
396
399
400
403
407
407
409
410
412
412
412
410
409
408
403
397
390
383
376
369
364
357
351
349
347
345
343
341
341
340
341
341
341
340
340
342
341
341
342
342
343
343
345
344
345
346
347
348
347
348
349
348
347
348
348
349
348
347
347
346
346
346
346
346
347
347
347
347
348
348
349
350
351
352
354
356
356
355
356
360
363
363
361
355
353
352
352
353
353
353
353
353
355
369
397
413
416
421
408
326
250
237
252
276
296
314
327
343
361
375
379
380
382
386
388
389
392
393
395
397
399
401
403
404
407
407
409
412
414
415
416
417
418
417
415
414
410
404
399
391
384
379
374
369
364
361
356
353
353
354
353
351
351
350
351
351
351
351
351
351
351
351
352
353
354
355
354
354
354
354
354
354
356
357
356
356
356
356
357
356
356
355
355
355
355
355
356
355
354
354
355
355
355
356
356
355
356
356
355
355
355
356
356
356
356
357
358
358
357
356
356
357
357
356
357
358
358
358
357
358
359
359
359
358
359
358
358
357
359
357
357
357
358
360
359
358
358
357
357
359
361
359
361
365
369
370
369
368
365
359
358
358
358
359
289
304
319
327
340
354
370
377
379
380
381
382
382
383
386
386
387
388
390
391
393
393
394
398
398
400
400
402
404
404
403
401
398
396
392
389
384
377
372
369
364
359
356
352
349
348
345
344
342
342
342
341
342
342
342
342
342
342
343
342
342
344
342
342
344
346
344
346
346
346
347
348
348
347
346
347
346
346
346
347
347
347
345
346
346
345
345
345
345
346
345
345
345
345
346
346
344
343
344
346
345
344
345
345
345
345
346
345
347
346
346
347
346
346
346
346
346
346
346
347
347
348
349
347
349
351
351
350
353
356
361
370
388
389
391
392
394
396
398
400
401
402
407
409
408
410
412
413
412
412
410
406
402
395
389
382
376
369
364
358
353
350
347
345
342
341
340
339
340
339
339
340
341
341
341
340
340
341
340
340
340
342
341
342
343
342
342
343
346
344
344
345
345
345
346
346
345
345
345
344
344
344
344
345
346
347
345
345
346
347
346
346
348
346
347
348
348
347
348
349
349
350
349
350
349
349
351
352
351
350
351
351
352
352
353
352
353
356
356
355
358
361
362
363
363
362
360
356
354
352
352
352
352
351
352
366
397
420
427
426
412
7
339
342
359
362
364
366
368
371
375
377
379
381
381
382
382
381
378
374
369
362
356
351
346
343
340
337
334
333
333
332
330
331
332
332
330
330
332
333
333
333
335
335
335
336
338
338
339
341
341
342
342
343
343
346
347
346
346
348
349
347
347
347
348
348
347
347
346
347
347
346
345
344
344
343
341
341
343
346
345
343
343
346
350
354
354
353
351
347
344
344
345
347
346
346
348
360
386
405
413
415
414
351
262
223
236
265
285
303
316
327
340
355
366
371
372
374
375
376
377
379
379
378
380
382
382
383
384
385
387
389
391
393
374
376

365
365
366
365
366
366
368
380
410
432
439
439
429
354
269
248
262
286
307
324
340
358
376
390
395
396
397
400
401
404
406
409
410
412
414
417
419
421
422
425
428
431
436
439
439
441
441
439
438
436
434
430
424
418
409
403
397
391
385
379
375
372
370
368
368
367
366
366
366
366
366
365
367
368
367
367
367
368
367
367
368
368
369
369
368
369
372
372
371
371
371
371
371
372
373
372
373
373
372
372
371
371
370
371
370
371
371
371
371
371
371
370
368
368
368
369
370
370
371
372
370
370
374
379
380
381
381
378
372
369
268
290

0376
381
384
385
388
390
391
392
394
396
397
399
401
401
403
405
406
407
412
414
414
417
419
420
419
419
416
413
409
404
397
390
383
375
370
362
356
353
350
346
344
342
341
340
340
339
339
339
339
338
339
339
340
341
340
341
342
342
343
343
343
343
343
345
344
344
346
347
347
347
348
347
347
349
348
348
349
349
348
348
349
349
350
350
352
351
351
352
352
352
353
354
353
354
355
357
356
358
360
361
360
361
365
369
371
371
369
366
362
360
360
362
362
362
363
366
382
407
424
431
436
423
346
263
245
261
286
305
321
332
246
246
444
245
245
244
244
247
248
248
248
248
249
252
252
253
251
246
244
243
242
244
245
245
246
250
271
299
314
318
320
284
193
132
136
156
176
194
210
227
244
263
273
277
280
283
285
287
288
290
292
295
298
301
303
306
310
311
313
317
321
324
328
331
333
333
335
334
332
331
326
321
315
310
305
300
297
294
290
287
286
284
283
282
283
283
285
286
287
286
286
288
289
291
293
296
295
297
299
299
300
302
303
304
306
307
309
309
311
313
315
316
316
318
320
321
322
322
323
324
324
325
328
328
328
330
331
333
333
335
336
338
341

315
408
408
410
412
415
416
416
418
420
420
421
424
425
426
427
429
432
435
437
439
440
441
443
442
443
443
440
436
432
426
419
410
403
397
390
385
380
377
374
372
370
370
369
368
370
367
368
368
368
368
367
367
368
367
368
370
369
371
371
371
371
371
370
372
371
371
372
372
371
371
371
371
370
371
370
371
370
370
371
371
370
369
369
370
370
369
370
370
370
371
374
375
376
376
377
378
378
379
380
378
373
367
368
368
369
368
368
369
374
395
419
433
438
444
418
328
255
248
271
294
311
327
337
353
371
384
390
391
393
393
39
344
344
3
345
345
347
346
348
347
349
350
350
352
350
350
351
350
351
351
350
351
351
352
352
351
351
351
349
350
354
355
354
354
354
354
356
359
360
359
356
352
350
349
347
347
349
348
349
354
376
400
411
414
421
388
300
231
227
255
280
297
312
322
336
353
366
371
373
374
377
376
378
379
381
384
386
387
386
387
389
393
395
397
400
403
404
405
407
407
408
406
405
402
398
392
386
380
373
367
363
358
356
354
351
349
348
347
347
344
345
346
346
345
346
346
346
345
346
347
346
346
346
346
347
347
349
350
352
351
350
348
348
350
350
410
411
408
405
402
396
389
382
374
368
361
355
349
345
343
342
339
338
337
338
337
337
338
338
338
339
338
339
340
340
340
340
342
342
342
343
344
346
347
347
347
349
350
351
352
352
352
353
354
352
354
355
355
354
353
354
354
355
354
354
355
359
362
361
360
361
363
364
364
363
359
355
352
351
350
350
350
349
350
351
369
400
418
422
422
389
294
224
220
240
263
284
302
321
340
360
369
371
372
375
377
379
380
382
383
385
387
389
390
393
394
398
399
400
402
404
406
409
410
411
412
410
409
407
404
399
391
384
377
370
337
339
33
340
339
339
340
340
339
339
339
338
340
341
339
339
341
345
346
346
346
344
346
350
351
348
344
341
337
337
338
337
337
338
341
352
376
397
407
413
411
348
255
215
226
255
274
291
304
319
335
350
361
364
366
368
370
372
371
372
373
374
377
379
380
381
382
385
387
388
390
393
394
395
395
397
397
394
390
389
384
380
373
367
362
355
350
345
342
339
337
335
333
332
331
332
332
333
333
331
331
330
331
332
333
334
334
335
334
334
335
336
335
336
335
337
338
338
337
337
338
339
338
336
335
335
336
336
337
336
337
335
334
379
381
392
394
394
396
399
400
401
403
404
407
409
410
411
414
417
417
417
418
417
417
414
409
405
400
396
389
383
376
372
369
365
364
361
361
359
358
358
358
359
358
357
357
358
358
358
359
360
360
360
361
362
362
362
362
363
364
365
366
366
367
365
366
367
367
367
367
366
366
367
367
367
367
369
369
369
369
370
373
373
372
371
367
362
359
360
359
359
358
360
360
371
399
424
432
434
428
357
260
226
241
271
293
312
324
342
360
375
380
381
383
385
386
389
390
393
394
396
398
399
400
403
404
406
409
411
413
415
417
419
419
47
348
349

351
350
349
349
349
349
349
349
349
350
351
351
351
353
355
357
359
360
360
357
353
350
348
347
347
347
346
346
347
353
379
406
418
420
416
352
256
214
223
248
273
294
312
332
351
365
370
372
374
376
379
380
382
385
386
388
390
392
392
396
399
400
401
404
406
409
411
413
414
414
414
412
411
407
402
397
390
383
375
368
362
356
353
349
345
343
342
342
340
337
337
337
337
338
339
337
338
340
340
339
341
343
344
343
344
344
343
343
344
345
347
348
347
346
346
346
347
349
349
348
347
347
347
347
346
348
351
351
352
355
356
373
369
344
344
344
343
342
341
340
341
341
342
343
343
343
343
344
345
347
348
347
346
349
350
349
349
350
348
348
348
348
348
348
349
350
349
348
352
354
353
353
354
355
356
358
356
353
350
347
345
345
346
346
345
348
350
364
390
408
416
422
408
329
244
214
232
267
290
307
315
328
345
361
370
371
371
374
377
377
378
380
383
383
384
385
387
390
392
394
396
398
400
402
404
404
405
404
403
401
400
395
389
383
378
373
368
363
358
353
350
348
346
344
344
344
344
342
342
340
340
341
343
343
342
342
343
344
345
344
347
347
348
640
384
403

237
209
230
263
287
307
320
336
351
366
372
375
376
378
380
382
383
384
385
386
389
393
395
396
396
400
401
402
405
407
408
409
410
411
410
408
405
402
397
390
384
376
369
364
360
355
350
348
345
342
343
343
341
341
341
341
341
341
340
340
341
341
342
342
342
343
344
344
344
345
345
345
346
349
348
347
348
348
348
349
353
353
353
354
356
356
356
356
355
350
346
343
343
342
342
344
344
344
353
377
397
408
411
400
324
236
210
228
257
282
302
316
334
352
365
370
373
375
377
378
381
381
383
385
387
388
390
392
396
397
39
345
346
52
352
354
354
355
355
356
356
352
348
346
343
343
345
346
345
344
347
357
381
400
410
417
407
329
244
218
232
256
280
302
317
336
356
367
373
374
376
379
381
382
384
386
388
389
392
394
396
396
398
401
404
406
407
410
412
413
414
413
413
411
410
405
400
394
388
380
373
368
362
356
352
350
347
344
342
341
341
341
340
340
339
340
340
340
341
341
342
342
343
344
344
345
345
346
347
346
346
348
346
347
348
349
348
348
349
350
352
355
354
353
354
355
356
358
359
357
353
348
344
345
346
346
346
347
347
356
380
401
412
418
52
376
377

383
385
388
389
390
392
395
397
398
399
402
402
404
405
406
406
404
401
399
394
389
384
380
374
369
363
358
354
351
350
348
347
346
346
347
345
345
346
345
344
344
344
345
345
345
346
347
347
347
348
350
350
349
350
351
349
350
350
351
350
353
356
357
356
355
355
356
357
358
358
355
352
348
346
345
345
345
346
346
347
359
383
402
412
418
414
344
253
213
226
260
287
308
318
328
342
357
367
371
373
374
376
377
379
381
382
384
386
388
390
391
392
395
396
399
401
401
402
404
404
404
402
401
400
395
390
385
379
373
363
369

387
389
391
394
396
398
401
403
404
405
408
410
409
409
409
408
406
403
399
392
386
379
371
364
360
355
350
347
344
343
341
340
340
340
339
339
339
340
340
339
340
341
341
342
342
341
342
344
344
343
343
344
345
345
345
346
346
348
348
349
350
352
353
353
354
354
355
356
356
352
348
345
343
341
342
343
343
343
343
349
371
396
407
410
405
342
250
209
221
250
278
298
313
333
351
366
371
374
375
377
378
380
382
384
386
389
391
394
394
396
397
400
402
405
406
408
410
411
412
411
411
411
407
403
400
393
385
379
373
365
35
335
335
345
347
346
346
348
350
349
348
350
350
351
351
351
351
352
354
357
358
356
357
357
358
359
360
359
354
351
349
348
348
348
348
349
349
354
374
398
410
418
426
389
296
222
213
242
276
299
313
321
338
354
368
375
376
376
379
381
382
382
384
386
388
388
389
390
392
393
396
398
400
401
402
403
404
406
405
403
401
398
394
389
383
379
373
366
360
357
354
351
348
346
345
345
345
344
344
345
343
343
343
343
344
345
346
348
349
347
347
350
350
350
350
352
351
351
352
353
352
352
354
357
360
360
359
358
359
360
362
361
358

343
344
7
349
349
351
352
355
356
357
356
356
358
360
359
355
351
348
347
347
346
345
345
346
347
362
386
404
411
414
389
298
221
212
234
264
288
305
322
341
359
368
373
374
375
377
379
381
384
386
387
389
392
395
396
397
400
402
404
407
410
412
414
414
415
414
413
411
408
404
400
392
383
376
370
364
357
352
348
346
344
343
341
340
339
340
339
