392
396
398
398
402
404
406
407
409
409
410
410
409
408
409
407
403
398
392
384
377
370
365
359
353
349
348
345
342
340
340
339
340
340
340
340
342
341
342
342
343
344
345
346
346
346
346
348
348
347
347
347
348
347
347
347
346
346
347
347
346
346
348
351
352
352
353
354
356
359
358
355
351
348
344
344
344
344
344
345
345
351
371
393
405
414
422
368
268
203
202
238
270
291
307
323
343
362
370
373
374
376
378
380
381
383
386
389
390
392
394
396
397
400
401
402
402
403
405
404
403
404
402
399
397
394
389
382
376
372
367
361
356
352
347
345
344
343
341
340
339
339
339
340
341
342
342
343
342
344
346
346
346
345
346
348
347
347
348
349
348
347
347
346
346
346
346
346
346
347
346
347
350
351
350
350
352
355
358
357
354
350
347
344
343
342
343
345
345
345
354
375
398
409
418
423
367
267
206
210
244
276
299
311
322
341
360
370
374
375
376
376
378
383
384
384
386
388
390
392
394
397
398
399
400
401
402
403
403
402
401
400
397
394
391
387
381
375
371
366
359
357
354
351
350
348
347
346
344
343
344
345
345
345
345
345
346
348
348
349
349
349
349
349
350
350
350
350
350
351
350
351
349
348
349
350
349
348
351
355
354
353
354
354
357
358
358
356
351
347
344
345
346
347
347
348
349
359
382
403
412
420
417
350
253
206
218
255
285
306
316
328
343
360
370
374
376
378
379
381
384
385
385
387
389
392
394
394
396
398
400
400
402
401
402
403
402
401
399
397
395
391
385
379
373
370
367
361
357
353
350
348
347
346
344
343
342
343
342
342
343
343
345
346
346
347
348
348
348
349
348
348
348
349
348
350
350
348
348
348
349
351
353
355
355
354
354
357
358
359
357
355
351
346
344
346
346
345
345
346
349
366
390
405
412
417
393
300
214
201
234
269
293
310
321
336
352
367
371
373
374
377
378
380
381
384
387
387
389
391
393
394
397
398
399
400
402
403
403
403
402
402
400
398
394
388
383
377
371
366
362
358
354
350
350
348
347
348
347
347
346
345
346
346
347
349
349
349
350
351
352
353
353
355
355
354
356
356
356
356
356
356
357
356
356
358
362
364
362
363
363
364
366
367
365
361
357
354
353
354
354
355
355
355
361
383
407
419
423
421
356
252
207
222
259
287
309
323
339
357
374
381
383
386
387
388
390
392
394
395
398
399
401
402
404
406
409
411
414
415
416
418
418
416
416
415
413
409
404
397
390
383
377
372
366
361
357
354
351
348
349
348
347
345
345
345
344
344
348
347
346
346
346
347
348
348
350
349
349
350
349
349
350
350
349
351
351
351
350
351
352
353
356
356
357
356
357
359
360
357
353
350
347
345
344
344
345
346
347
350
368
395
411
415
413
362
258
201
208
239
269
292
307
326
345
362
369
372
373
375
376
378
380
381
382
384
387
389
390
392
394
397
398
399
401
402
404
406
405
404
402
401
398
392
385
378
370
363
357
352
346
340
336
333
331
330
330
329
328
327
327
327
327
327
328
329
328
330
331
330
330
331
331
331
332
332
331
332
332
332
331
332
333
334
333
333
334
335
338
339
339
340
339
340
342
344
343
338
333
330
329
328
329
330
330
331
332
343
370
392
401
406
381
287
205
189
211
241
268
290
308
328
349
360
364
365
367
370
372
374
377
377
378
381
384
387
390
393
395
398
399
402
403
404
405
407
406
406
404
401
397
392
386
379
371
363
357
350
345
342
340
336
334
334
333
332
332
332
331
332
334
335
335
335
336
338
338
339
339
339
338
339
340
340
340
341
339
340
340
342
341
340
340
340
340
340
340
343
344
346
347
349
350
351
354
355
354
351
347
343
342
343
344
344
344
344
345
358
384
402
411
419
406
319
228
200
219
253
279
300
315
336
355
369
373
375
377
379
382
385
386
389
391
393
394
395
399
401
403
403
406
408
409
411
412
413
413
411
409
407
404
400
393
385
380
374
369
362
359
356
352
349
348
346
345
345
345
345
346
346
345
345
347
348
348
348
350
349
349
350
350
351
350
351
352
353
350
351
351
351
350
352
351
350
350
350
351
354
355
355
357
357
359
361
362
360
357
353
351
348
349
350
350
350
349
352
366
388
406
415
422
416
341
246
205
222
260
288
307
318
331
349
366
375
376
377
379
381
385
386
387
391
391
391
393
395
397
398
399
400
401
403
405
405
406
404
404
401
400
397
393
387
381
377
371
367
360
355
354
352
349
347
345
346
346
346
345
344
345
346
346
346
346
348
349
349
349
351
351
351
352
351
352
352
352
351
349
350
351
350
349
351
353
355
356
355
357
359
361
361
361
359
357
352
350
350
351
350
352
351
352
360
381
401
413
421
422
367
270
210
215
252
284
306
317
328
343
362
373
377
378
379
381
383
384
385
389
389
390
391
392
395
397
399
400
402
403
404
405
404
404
403
401
401
398
395
389
383
378
371
366
362
358
354
352
349
348
348
346
345
345
345
347
345
344
345
345
345
346
347
347
349
349
350
350
349
351
352
351
350
351
353
353
351
351
353
356
354
353
356
356
357
357
357
355
351
347
345
346
347
345
345
345
347
358
380
400
407
412
408
338
243
198
218
257
284
304
316
328
343
358
367
371
372
374
375
378
380
382
383
384
387
388
390
391
394
395
396
398
400
400
402
402
403
400
398
397
392
387
382
376
370
364
359
355
351
347
345
343
342
341
340
339
340
341
340
340
341
340
341
341
342
343
343
345
345
346
346
347
347
347
346
346
347
347
348
349
353
354
353
352
353
355
354
355
355
353
349
345
344
343
344
343
342
344
346
361
384
399
404
408
382
285
204
197
232
265
291
308
319
336
353
366
370
371
373
374
376
378
380
381
382
384
387
388
390
392
396
398
400
401
402
403
404
404
404
403
400
396
392
387
381
375
369
363
357
352
349
345
343
342
341
341
339
338
338
338
338
338
339
340
340
341
342
341
342
343
344
345
345
345
346
345
346
347
347
348
348
349
351
353
353
354
354
353
356
357
356
352
348
345
343
342
341
343
343
342
344
356
382
400
407
408
379
282
202
195
228
262
287
304
320
337
356
366
371
373
374
376
379
380
382
385
386
388
389
392
395
396
398
401
404
406
408
409
409
410
410
408
405
402
398
392
384
377
369
363
358
352
348
344

340
343
343
344
343
343
344
344
343
344
346
346
347
350
351
352
353
352
355
356
355
351
347
344
341
341
342
341
341
342
343
351
376
397
406
409
395
310
221
197
220
252
278
298
315
334
354
366
370
371
371
374
377
379
381
383
385
387
389
391
395
397
398
400
403
404
408
411
412
412
412
411
409
408
403
397
390
383
375
369
362
356
350
346
343
341
339
339
337
337
337
337
338
339
338
339
339
339
339
340
341
341
342
343
343
344
345
345
345
344
343
343
343
344
344
343
344
347
348
350
351
352
352
352
355
357
356
352
348
345
343
392
382
382
3
393
395
398
399
400
401
402
401
401
399
397
395
392
386
382
376
372
367
361
355
352
347
345
343
341
340
340
340
340
338
338
340
341
340
340
340
342
343
344
345
343
341
343
343
344
345
344
344
343
344
345
344
342
344
346
349
349
348
350
350
350
353
353
349
345
341
340
341
340
339
339
339
341
351
372
393
402
408
408
350
254
197
201
238
270
292
304
314
331
347
359
362
364
364
366
369
369
371
372
374
376
378
380
381
382
384
387
387
389
390
391
391
390
389
388
386
381
377
372
365
360
357
352
347
342
339
338
335
334
333
332
535
355
355

362
365
365
365
362
357
353
352
352
351
351
350
351
350
356
377
403
416
419
417
354
252
204
217
250
278
300
317
337
358
373
379
381
383
385
384
387
390
390
392
395
397
400
401
403
407
409
410
413
416
417
417
418
419
419
418
417
413
408
401
393
385
377
370
364
358
354
351
349
347
345
344
344
344
343
344
344
343
343
344
343
344
343
344
344
346
346
346
347
347
346
346
347
347
348
348
348
348
348
347
348
351
353
356
357
357
356
357
359
360
356
350
348
345
344
345
346
345
344
345
348
365
391
407
414
416
367
265
206
209
01
400
360
356
353
350
347
343
343
342
340
343
342
340
340
339
340
340
340
342
343
344
346
346
347
347
349
348
348
347
346
348
348
349
348
349
352
353
353
352
352
353
355
357
357
356
353
349
345
344
343
344
343
344
343
344
358
380
397
404
414
408
334
239
196
211
250
281
304
315
325
342
359
369
372
374
374
375
378
378
380
382
387
388
389
390
391
393
394
395
399
400
399
399
400
400
399
399
396
391
386
383
377
371
366
361
356
351
349
347
345
344
341
342
342
341
341
342
343
342
343
343
344
344
343
344
344
344
345
346
348
347
05
400
395
340
339
340
339
340
340
341
339
340
340
341
341
342
343
343
344
344
345
345
344
345
345
344
345
347
347
348
350
353
354
353
355
354
354
356
355
353
350
346
343
342
341
342
342
342
344
353
375
393
400
405
388
301
217
198
223
257
285
303
320
338
358
370
373
374
376
377
380
382
384
385
388
390
392
395
397
399
403
404
406
409
410
412
412
414
413
411
409
407
401
396
388
380
372
366
361
354
349
346
343
340
338
337
337
337
336
336
336
338
338
338
337
338
340
339
339
339
341
342
342
342
342
342
341
342
341
342
345
344
344
398
354
352
350
348
347
348
346
345
344
344
344
344
344
345
344
346
346
346
347
348
349
351
350
350
350
350
351
351
351
351
349
349
352
356
357
354
355
356
358
359
359
356
353
349
345
345
345
346
345
346
345
348
365
388
402
412
419
395
304
220
200
228
265
292
309
318
332
350
364
369
370
373
375
377
379
379
381
382
383
385
386
388
390
392
394
397
398
399
399
399
399
399
398
397
393
389
384
378
372
368
363
357
351
349
345
343
342
342
339
340
339
339
339
338
340
340
338
339
340
340
342
342
342
343
343
344
345
346
347
347
343
356
228
260
285
303
321
339
358
368
373
374
375
378
379
380
382
385
387
389
392
394
396
399
402
404
408
410
413
413
414
414
413
412
410
407
403
396
388
381
374
366
360
353
348
346
343
341
338
337
338
337
338
337
337
337
338
339
338
338
339
340
341
341
341
343
341
341
341
343
343
344
345
345
345
344
344
345
345
345
346
347
347
349
352
352
352
353
354
357
358
358
352
348
346
345
344
344
344
343
344
344
351
376
402
417
420
412
339
239
201
216
247
274
295
313
332
353
367
372
374
375
377
379
381
383
386
388
390
393
395
399
10
383
384
394
396
397
400
399
402
403
403
402
401
403
401
400
395
390
385
380
376
370
364
360
356
352
351
349
348
346
345
346
345
345
345
344
345
347
349
349
348
349
348
349
349
348
351
349
348
349
352
350
351
351
351
351
351
352
350
349
347
350
351
350
352
350
349
348
348
349
349
349
349
351
350
349
348
348
349
348
347
350
350
349
348
349
349
349
349
349
351
353
353
354
356
358
360
361
361
359
355
350
349
350
350
350
349
350
356
379
401
411
417
424
380
285
220
220
251
278
298
312
323
338
354
368
374
375
377
378
378
380
381
397
392
384
351
347
344
342
341
340
341
340
339
338
338
340
340
339
340
341
340
341
342
341
341
342
342
342
343
343
344
345
344
345
345
346
345
346
347
347
347
345
345
346
346
345
345
345
347
346
346
347
347
347
346
346
346
347
347
348
348
349
348
347
350
354
355
355
355
354
354
357
360
359
356
353
349
348
347
348
347
347
349
356
378
407
420
422
421
370
270
217
222
248
272
290
307
326
346
364
372
374
375
378
380
381
383
384
386
388
390
393
393
395
399
401
403
405
408
411
412
413
413
415
414
412
409
405
401
394
387
380
374
367
321
342
383
384
387
389
391
393
396
397
399
400
403
406
407
409
412
412
413
413
415
413
411
408
405
399
390
383
376
369
363
357
352
349
347
343
341
340
342
341
339
339
339
339
339
338
338
339
339
340
341
342
341
341
343
345
344
344
344
344
344
345
345
344
345
345
345
346
346
346
345
347
345
345
345
346
346
345
346
346
346
346
347
347
348
349
349
346
348
351
352
351
354
355
357
359
359
359
356
352
350
349
350
350
350
349
351
358
380
401
411
419
423
370
273
216
221
251
274
294
311
324
341
357
370
374
375
376
379
381
384
385

377
391
393
395
397
398
400
403
405
407
409
410
409
407
408
406
401
397
392
385
378
371
365
359
354
350
348
344
341
341
340
339
340
341
341
341
342
342
340
341
342
341
341
342
343
343
343
344
344
344
345
346
346
345
345
346
346
346
345
345
345
345
346
345
346
345
346
348
351
353
353
352
351
353
356
358
356
351
346
343
342
342
343
344
344
343
347
368
395
411
416
419
374
273
207
209
239
267
289
305
321
341
360
368
370
372
376
376
377
380
382
383
385
388
391
392
394
396
398
400
404
407
409
410
412
413
414
412
410
406
404
344
346
345
346
347
346
346
347
346
346
346
346
345
344
346
346
346
346
346
347
347
348
348
353
353
353
354
355
355
358
359
358
355
352
349
348
348
348
347
347
348
353
372
396
409
419
427
394
299
220
210
240
268
288
306
318
337
354
367
372
373
376
378
379
380
382
385
385
387
387
388
391
395
396
397
400
401
403
405
406
408
408
407
407
404
401
396
390
384
379
373
367
363
358
353
348
346
344
343
343
342
342
341
341
340
342
340
341
341
342
343
344
345
344
345
345
345
345
347
348
347
348
348
347
348
349
348
350
349
347
347
381
400
403
405
407
408
410
410
410
410
408
406
403
398
390
384
378
370
362
357
352
347
345
343
340
339
339
340
338
338
339
339
338
338
339
339
340
340
342
342
342
342
342
343
344
345
345
345
345
345
345
345
346
345
345
346
347
348
346
346
349
349
351
350
350
352
355
357
357
358
356
352
347
344
343
345
344
344
344
344
350
374
400
412
418
415
344
242
200
214
245
272
293
309
328
347
362
367
370
373
375
377
379
381
383
385
387
388
390
393
395
397
400
402
404
407
408
411
412
412
412
412
411
408
403
396
389
382
375
369
362
341
349
346
343
342
341
343
344
344
346
347
356
379
402
414
421
425
372
275
213
213
247
278
299
311
321
336
353
366
368
369
371
372
373
374
374
375
374
376
378
379
381
384
385
388
392
395
398
401
402
404
403
402
402
402
397
392
389
383
377
373
367
361
356
353
349
346
344
343
343
343
342
342
342
342
341
342
342
341
342
343
342
342
343
342
343
343
342
342
342
343
340
342
342
341
339
337
338
337
337
338
339
339
340
342
344
343
344
348
350
351
349
347
345
343
341
341
342
343
346
346
350
371
393
406
415
422
392
301
223
209
411
387
380
373
367
361
355
351
348
345
343
342
341
340
340
341
340
340
340
341
339
341
342
343
342
342
343
343
345
344
345
346
346
347
346
346
346
347
346
345
346
347
346
347
347
347
349
352
354
354
355
354
356
358
359
356
352
349
346
345
345
343
344
343
343
348
370
397
412
417
416
359
254
199
209
242
269
290
307
327
348
364
370
373
374
377
379
381
384
385
386
390
393
395
397
399
401
403
405
408
410
413
414
414
415
415
414
413
411
408
403
396
388
380
372
366
359
354
350
347
345
342
340
338
339
338
337
338
339
340
338

348
344
343
344
346
347
350
366
392
407
416
425
394
297
217
207
230
259
285
304
321
341
360
371
374
375
377
379
382
384
386
387
387
390
393
394
395
398
401
403
405
407
407
411
413
415
414
414
414
412
409
405
401
394
387
380
373
367
362
356
353
350
349
348
346
346
346
346
346
347
347
347
347
347
349
349
350
351
353
354
355
355
356
356
357
357
358
359
360
359
361
361
361
362
362
362
363
363
364
366
366
368
371
371
373
374
377
378
378
376
372
370
368
368
369
368
367
369
370
377
396
418
432
443
452
411
313
236
227
260
293
318
334
343
314
380
384
386
387
387
389
391
391
393
394
394
393
396
397
398
400
402
403
404
406
407
408
408
408
406
404
401
396
391
386
382
375
368
363
361
356
353
350
347
346
344
344
344
343
343
343
345
345
347
346
345
346
346
347
345
345
346
347
348
349
350
349
349
350
349
350
350
350
352
354
355
354
354
355
355
357
357
354
352
348
344
343
342
342
342
342
342
345
362
383
398
407
414
390
301
218
194
219
257
285
303
313
326
342
357
364
366
367
370
372
372
374
375
377
379
379
381
383
384
386
387
388
390
391
392
395
394
394
392
392
39
340
341
343
343
344
344
345
348
350
351
353
354
353
356
357
359
355
350
346
344
343
343
344
343
345
348
356
377
396
405
411
394
310
226
207
229
261
285
304
321
340
359
372
375
378
379
382
384
386
388
390
391
394
398
400
401
403
406
407
410
412
415
416
417
419
419
418
417
416
412
407
402
397
389
380
374
367
361
356
353
350
348
347
347
346
345
346
345
346
346
347
348
347
347
346
347
347
349
349
350
350
351
352
351
351
352
352
350
350
352
352
353
353
355
358
358
359
361
361
361
363
362
358
353
350
349
348
348
349
348
348
350
342
341
346
347
347
346
347
348
348
348
349
349
349
352
354
353
352
354
354
354
355
354
352
349
345
345
344
346
345
345
345
347
356
377
396
407
415
414
346
251
201
207
244
277
301
312
323
339
355
366
370
371
372
375
377
377
380
381
384
385
387
388
390
393
394
395
397
401
403
404
404
405
404
404
403
400
396
391
385
380
373
367
362
359
354
351
348
345
345
345
344
343
344
344
344
343
344
345
346
346
346
349
349
348
348
350
349
349
350
352
351
350
351
352
351
353
355
357
358
357
357
357
357
357
357
357
353
349
346
345
345
345
388
00
402
405
407
409
409
411
412
412
412
412
409
404
399
393
385
378
372
366
359
353
350
346
343
341
340
339
339
338
339
339
339
339
338
337
339
339
339
339
341
341
341
342
344
343
343
344
344
344
344
346
346
345
346
347
347
346
349
352
352
353
354
354
355
356
357
353
348
345
344
342
342
343
343
342
342
347
368
394
405
409
405
337
240
199
215
247
275
296
314
332
352
367
372
373
374
378
379
382
384
386
388
390
391
393
395
396
398
400
403
407
409
411
413
414
415
415
414
411
409
404
399
392
385
377
370
364
358
352
347
344
444
344
344

347
347
347
347
348
348
348
348
348
349
349
348
348
349
347
346
347
348
351
351
352
351
353
355
356
357
358
356
352
349
347
346
345
346
347
347
347
350
368
393
409
418
425
397
304
221
203
230
266
292
308
316
333
351
366
371
371
374
376
380
381
381
381
383
384
387
390
391
392
393
396
398
399
400
402
405
404
404
403
402
400
398
395
389
382
376
371
366
360
355
353
349
346
345
344
343
342
341
341
341
342
341
341
341
341
341
342
342
344
344
345
346
346
347
346
346
346
347
346
347
348
347
348
349
348
347
350
354
355
353
29
348
377
379
380
381
384
386
389
391
392
395
397
399
400
403
405
407
409
411
413
413
413
413
411
407
403
398
392
383
376
370
364
357
352
348
344
342
342
340
339
339
339
338
338
338
340
339
339
339
340
340
341
342
342
343
343
345
345
344
344
345
345
345
345
346
346
346
345
345
346
348
348
349
351
352
353
352
352
354
357
355
351
347
344
343
342
342
342
340
341
342
354
381
401
410
415
393
303
215
199
223
254
279
300
318
337
358
368
373
374
375
377
378
379
382
384
385
389
391
393
395
399
400
401
404
408
410
409
411
414
415
414
342
342

337
337
338
339
339
339
340
341
341
342
342
343
344
344
344
343
344
345
346
345
345
346
347
348
351
353
353
352
352
353
355
357
358
354
351
346
344
343
344
344
343
342
342
349
366
388
402
413
422
388
293
211
194
223
262
290
307
316
332
351
366
371
373
374
376
378
378
379
381
383
385
387
388
391
393
395
396
398
399
400
402
402
401
401
402
402
399
397
392
389
381
376
371
364
359
354
350
348
346
344
342
342
343
342
341
341
340
341
341
341
343
344
343
344
344
344
344
345
344
345
346
345
345
346
346
346
346
347
351
402
404
10
409
407
405
400
394
389
381
374
368
362
357
353
348
344
343
340
339
338
338
338
338
338
339
338
337
339
340
340
341
341
341
341
342
342
342
342
342
342
344
345
346
348
350
352
351
352
352
354
354
355
354
351
346
344
341
340
341
341
340
341
343
358
379
391
397
399
356
256
190
194
231
267
292
308
324
344
362
369
371
374
376
377
379
380
383
386
388
390
391
393
395
399
402
405
407
409
410
412
414
415
415
414
412
410
406
400
394
386
378
371
366
360
353
350
348
345
344
343
342
341
342
342
342
342
343
345
344
344
344
343
34
356
357
44
344
344
344
343
343
345
353
374
394
407
421
423
358
256
196
201
238
273
298
311
323
342
360
370
374
375
376
379
382
384
384
385
387
389
389
391
395
396
398
399
402
402
405
406
406
407
408
406
404
402
397
393
387
381
376
369
363
358
354
349
347
346
344
342
343
342
342
342
342
342
343
343
343
344
344
344
347
347
347
347
347
348
347
348
348
348
348
349
349
348
349
351
355
355
352
353
353
354
357
357
357
352
348
346
345
345
346
346
346
346
350
368
389
405
416
425
404
313
221
194
219
259
289
307
318
333
351
367
374
375
341
343
344
345
345
346
347
346
348
349
348
350
352
354
354
355
354
357
358
357
356
355
352
349
345
343
346
346
345
345
346
357
378
394
401
406
393
307
217
193
220
258
286
305
319
336
354
367
371
373
375
377
380
380
381
383
387
389
392
394
395
397
398
400
401
404
406
408
410
411
411
410
407
406
403
397
391
385
379
371
364
358
353
349
348
346
342
340
341
342
342
340
342
341
340
342
342
342
342
342
343
343
343
343
345
345
345
345
344
345
345
346
347
347
351
353
353
353
354
355
356
357
357
354
351
347
343
344
344
343
344
34
342
347
256
205
209
238
269
292
308
329
350
365
371
373
375
377
380
382
383
385
387
390
391
393
396
399
401
403
404
407
408
411
413
413
414
415
414
412
409
406
402
394
386
379
371
364
358
353
348
344
342
341
340
339
338
337
337
337
338
339
338
338
339
340
340
341
341
342
342
344
344
345
346
345
346
346
346
347
347
346
347
348
348
350
352
353
351
352
353
355
357
357
354
349
345
344
343
344
344
344
343
343
349
366
387
402
412
422
380
281
205
196
228
263
291
307
317
335
354
368
372
373
375
376
378
380
382
384
384
388
389
390
343
344
347
348
348
349
352
353
355
353
355
356
358
358
358
356
352
347
345
344
345
344
343
344
346
350
368
386
397
403
408
355
255
195
201
238
271
298
312
324
341
359
369
371
374
374
376
378
381
384
385
386
388
390
391
392
396
397
399
400
402
404
406
406
406
405
405
404
401
395
389
385
379
372
366
362
356
352
350
347
344
343
343
342
341
340
340
341
341
342
344
343
344
345
345
344
344
346
345
346
347
348
348
349
350
348
348
352
355
357
356
357
357
357
357
359
356
352
348
346
345
345
344
344
343
343
349
368
387
398
403
401
433
344
344
347
347
350
352
353
353
354
354
355
357
357
354
351
347
343
341
341
342
343
343
343
348
364
384
398
410
417
367
267
196
191
226
261
290
305
321
342
362
371
372
375
377
378
380
382
382
386
387
389
392
395
396
398
401
402
404
405
407
408
409
409
409
407
407
406
402
398
391
384
379
372
366
360
355
352
348
346
344
343
342
342
340
339
340
341
342
342
342
343
343
344
343
345
346
346
347
346
347
346
347
348
347
347
351
354
354
352
352
356
357
357
355
353
348
344
343
343
344
344
342
342
345
357
381
399
408
419
409
325
389
391
301
402
402
402
401
400
399
397
393
387
381
376
370
364
359
355
351
347
345
345
344
343
342
342
342
341
341
341
342
342
344
345
344
344
344
346
346
347
348
349
349
350
351
353
356
357
357
357
357
359
360
360
358
354
350
348
346
346
347
346
346
346
352
370
387
396
402
405
350
248
189
196
236
271
300
313
326
344
360
369
374
375
376
377
380
382
383
385
387
388
389
391
394
395
398
401
403
404
404
406
408
407
406
406
404
400
396
392
384
379
372
366
361
356
353
350
347
346
344
343
342
343
344
342
343
343
343
343
344
345
345
345
362
196
203
237
270
294
311
330
351
364
371
374
375
377
380
382
382
386
389
391
392
393
396
399
401
402
404
406
409
411
413
414
415
415
414
413
410
405
400
394
386
378
371
364
358
352
347
345
344
342
341
340
339
338
339
340
339
339
340
341
341
343
343
343
343
343
344
344
344
343
344
345
344
344
345
346
347
347
349
352
352
353
352
352
354
356
357
355
351
349
345
343
343
344
343
343
344
349
367
388
401
413
420
374
274
202
195
228
265
294
309
322
341
359
369
373
375
377
380
382
383
385
388
389
391
395
396
397
398
401
343
341
343
345
362
384
397
408
413
378
282
205
193
226
265
295
310
318
332
350
365
370
372
373
376
377
379
382
384
384
386
387
389
392
393
395
397
400
401
402
403
404
404
404
403
401
399
395
393
385
379
373
367
361
357
354
350
347
346
345
343
341
341
342
343
342
343
343
343
344
344
344
344
345
347
347
348
348
347
347
348
349
349
349
350
352
354
356
355
356
357
358
359
359
358
354
351
348
346
345
345
346
347
347
352
369
390
401
409
410
351
249
193
203
244
278
302
316
332
349
365
375
375
378
379
381
384
386
388
390
392
393
396
340
343
344
345
345
345
346
347
348
346
346
348
350
354
355
354
355
355
357
358
356
352
349
345
343
343
343
342
343
344
345
357
379
393
403
413
389
298
216
197
220
254
283
303
321
341
359
369
373
375
377
379
381
382
384
387
387
390
391
394
395
397
400
402
404
405
408
409
409
410
411
410
408
406
403
398
393
387
378
372
366
358
353
349
345
342
338
338
338
337
338
338
338
338
336
337
339
340
340
341
343
342
341
343
344
343
344
345
346
346
346
