341
341
342
342
343
343
345
346
345
344
347
347
347
346
349
349
349
352
356
356
356
355
355
359
359
359
358
354
350
346
342
343
344
344
343
344
349
361
383
400
407
413
401
322
230
192
212
252
284
307
315
327
344
360
368
370
372
375
377
377
379
382
381
382
387
386
387
388
390
393
394
397
398
397
397
398
397
396
395
394
392
388
383
379
373
369
364
359
356
353
348
346
344
342
342
341
341
341
342
342
341
343
344
343
345
346
346
348
350
351
350
350
352
351
352
355
358
358
358
357
358
358
358
360
356
352
349
348
347
346
347
346
345
347
357
377
395
404
408
407
346
253
202
205
242
278
305
316
323
340
356
367
369
372
374
373
374
377
378
380
383
384
385
386
388
388
389
391
392
394
395
395
396
396
394
392
391
389
385
380
376
372
368
364
359
354
351
348
346
345
344
343
343
343
342
341
342
342
342
344
344
345
345
345
347
349
348
350
351
351
352
356
358
358
357
357
357
360
361
360
358
354
350
347
346
345
345
346
346
347
355
376
393
400
403
400
336
239
191
207
247
280
307
321
332
345
360
369
373
373
374
376
378
380
381
383
385
385
387
390
391
392
394
396
395
397
398
400
400
399
399
398
395
391
388
384
377
371
366
362
358
354
351
348
346
345
344
345
343
343
344
342
342
345
345
345
344
345
347
347
348
348
349
350
350
351
352
353
355
359
359
358
360
359
360
361
361
359
354
349
347
345
345
345
346
347
348
361
383
399
404
403
378
284
200
185
221
261
292
312
326
343
361
371
376
377
378
380
381
383
386
387
388
389
391
393
396
397
400
401
403
405
406
407
407
409
409
409
407
405
401
396
390
383
378
371
365
360
354
351
349
346
345
345
343
342
342
342
343
343
345
345
345
344
345
345
346
347
347
348
350
348
349
351
352
353
355
359
361
361
360
358
359
361
361
357
354
350
347
346
347
346
347
346
346
356
379
396
402
402
380
292
205
186
217
257
288
307
325
342
360
370
375
376
377
379
381
383
386
387
389
392
394
395
397
399
403
405
406
409
409
411
413
412
414
412
411
410
406
402
396
388
383
376
369
362
357
353
350
347
346
345
344
343
342
343
343
344
344
345
345
346
346
346
347
348
347
347
347
348
348
348
349
350
351
352
355
356
356
358
358
358
359
361
359
354
350
348
345
344
344
345
345
345
348
361
384
396
402
408
374
276
206
200
228
260
289
310
327
347
365
372
375
375
377
380
380
382
385
388
389
392
393
395
398
400
402
403
404
407
409
410
412
411
410
411
411
409
406
400
395
387
381
375
367
361
357
353
349
346
345
344
343
341
342
341
341
341
342
343
343
343
344
345
346
348
348
346
346
348
348
349
348
348
348
349
351
352
354
352
353
354
355
356
357
355
350
347
343
343
343
344
343
343
342
346
360
384
401
408
415
399
316
223
188
210
252
283
303
312
327
346
363
369
371
372
374
376
377
379
381
383
387
388
388
390
393
393
395
397
398
398
399
400
401
401
399
398
398
395
391
387
381
375
369
364
359
355
351
349
346
343
342
342
341
342
342
341
341
342
343
343
343
343
345
346
347
347
348
349
348
349
350
348
347
350
354
357
356
354
355
357
358
357
357
354
351
348
345
343
343
344
344
345
347
354
374
394
404
413
418
374
280
210
198
231
269
298
314
319
334
351
365
370
372
374
374
376
377
380
381
382
383
386
388
391
392
394
394
395
395
396
398
397
397
396
396
394
392
388
385
380
376
372
367
360
355
353
351
348
347
346
345
343
342
342
344
343
344
344
346
347
347
347
347
349
349
349
351
351
352
352
353
356
358
360
359
359
359
360
360
361
361
358
354
350
347
346
347
346
345
345
348
359
380
398
408
413
408
338
243
197
209
247
283
310
319
328
343
360
370
373
373
374
376
378
378
380
382
383
385
386
388
389
390
393
394
394
396
397
398
399
398
395
393
392
389
386
381
376
371
366
363
358
354
351
347
346
345
345
344
344
342
343
343
343
343
344
344
344
344
345
346
346
347
348
349
350
351
352
351
352
355
358
358
358
361
360
360
361
361
358
355
351
347
347
347
346
346
346
347
355
378
398
405
407
397
315
216
182
208
249
282
306
321
338
355
368
373
376
375
377
380
382
383
385
387
389
391
392
394
395
397
400
402
403
404
407
409
409
408
408
407
404
403
398
391
385
377
371
366
361
355
351
348
346
344
343
342
342
341
341
342
342
343
343
344
344
343
344
346
346
347
347
348
348
348
350
351
351
353
357
359
358
357
358
356
358
360
360
356
351
348
346
345
344
344
344
343
343
354
376
395
401
404
385
298
208
183
213
254
286
307
323
340
359
370
374
374
375
377
380
383
384
386
388
390
392
393
396
398
401
403
405
406
408
410
411
411
410
410
408
407
403
399
394
386
380
373
366
360
356
351
348
346
344
342
342
342
341
341
341
342
342
343
344
344
343
344
344
347
347
348
348
348
349
349
348
348
350
350
352
355
356
356
357
357
359
360
359
355
350
347
344
343
344
344
344
344
344
354
377
395
402
407
390
302
208
186
213
250
283
306
323
341
360
370
375
377
378
381
381
382
386
388
389
392
394
396
398
399
403
405
407
407
410
411
413
415
414
412
411
410
407
403
397
390
382
375
369
361
355
351
347
346
343
342
341
340
340
341
341
340
339
340
341
342
344
343
342
343
344
344
343
344
345
346
346
347
348
347
349
352
353
353
352
353
354
354
356
354
350
347
344
342
342
342
342
343
343
345
358
379
396
406
413
402
324
231
190
205
247
280
301
311
324
342
360
369
373
375
376
377
379
379
381
383
384
386
388
390
393
394
396
397
399
400
400
401
401
402
402
401
398
397
391
387
382
378
372
366
361
355
351
347
344
343
342
341
341
340
340
341
341
341
341
343
343
344
345
346
347
347
347
347
348
349
350
350
349
351
355
357
356
355
355
357
357
358
358
355
351
347
344
342
343
343
344
344
344
352
373
393
405
412
414
364
268
203
199
237
274
299
314
321
336
352
366
373
375
374
376
379
379
379
382
384
384
384
387
390
392
394
395
396
395
396
396
398
398
397
396
394
392
388
384
379
374
368
363
359
355
350
348
347
344
344
342
341
341
341
341
342
342
343
343
344
344
346
347
348
348
348
349
350
350
352
352
354
355
358
358
357
357
358
358
358
357
354
353
349
346
344
344
344
345
345
346
354
373
392
402
409
412
362
267
203
199
235
273
301
317
325
339
355
367
370
373
374
375
377
378
380
382
384
385
389
389
390
393
395
396
397
399
400
401
400
399
399
399
370
350
349
347
346
344
344
344
343
342
343
343
344
344
344
345
346
345
345
346
348
348
349
350
351
352
354
357
358
358
359
359
359
359
360
359
356
352
348
347
346
345
346
346
346
350
367
388
398
401
401
353
251
184
192
232
268
297
315
330
345
362
371
373
375
376
377
379
381
383
387
389
390
391
392
395
397
398
400
401
402
404
406
407
406
405
404
402
399
395
391
384
378
372
366
361
356
352
350
347
345
344
343
341
341
342
341
342
343
343
342
343
343
344
345
346
346
347
347
347
348
351
350
350
354
356
356
357
358
358
359
398
394
38
350
346
345
343
342
341
341
340
339
340
340
340
341
341
343
344
345
346
347
346
346
347
348
349
349
348
348
352
355
357
354
355
357
357
358
358
357
352
349
345
342
341
341
343
343
344
348
363
386
401
411
419
406
324
230
189
207
250
283
306
316
330
346
361
368
373
373
375
377
378
378
380
384
386
386
387
389
391
393
395
396
396
397
399
398
397
398
397
394
393
390
385
381
378
372
367
362
358
354
350
349
346
345
344
342
340
341
341
341
340
340
342
343
344
346
347
347
346
346
347
350
351
351
353
352
352
355
356
355
356
355
397
399

408
408
409
407
405
401
395
389
382
377
369
362
358
355
352
348
346
345
345
345
345
344
343
344
344
344
345
346
346
348
349
348
348
349
349
349
349
350
350
351
352
355
358
357
358
357
359
360
359
358
354
349
347
346
345
344
344
343
343
346
362
384
396
401
403
362
261
189
187
224
264
293
311
327
346
365
373
376
376
379
380
381
384
385
388
389
392
394
397
399
401
403
405
407
410
410
413
412
413
413
411
410
407
403
397
389
383
376
369
363
358
354
350
346
345
343
341
341
342
342
342
342
341
341
341
341
342
343
343
344
352
358
358
354
351
348
346
345
345
346
346
347
348
354
373
395
407
416
422
386
290
211
198
232
269
297
313
320
336
354
366
370
372
374
377
378
379
380
383
384
385
386
388
390
391
393
395
396
397
398
399
400
400
398
398
398
395
392
387
382
377
372
368
363
360
354
351
348
346
346
345
342
342
344
343
343
344
344
343
344
346
346
346
347
348
350
350
350
350
349
351
351
351
351
352
352
352
355
358
360
356
357
356
357
358
360
359
354
349
345
346
347
347
346
346
347
348
360
384
403
411
418
414
344
248
204
216
255
285
309
319
375
389
393
395
396
399
400
404
405
407
409
412
413
413
414
414
412
410
406
401
397
390
382
374
367
359
354
350
347
344
342
340
340
339
339
339
340
340
340
340
341
342
341
342
343
344
345
345
346
346
346
346
347
345
346
347
347
346
346
348
348
347
346
348
351
354
354
355
355
355
357
359
357
353
351
346
344
344
344
344
343
343
344
348
367
392
406
412
416
369
268
208
209
236
266
292
310
328
347
364
371
373
375
378
381
382
384
385
386
389
391
393
395
396
397
401
404
406
409
409
411
413
414
413
413
412
409
405
400
393
384
379
373
349
346
344
343
343
343
344
342
341
341
343
343
341
342
343
343
344
344
345
345
346
346
348
349
347
350
351
349
350
351
350
351
353
357
356
356
356
356
356
357
360
358
352
348
345
345
345
345
345
344
344
352
375
396
404
410
413
362
263
201
205
242
274
300
315
324
339
355
368
370
372
373
374
377
378
380
381
382
385
386
386
388
391
392
394
398
399
399
400
399
400
401
400
399
395
390
386
380
374
369
362
357
354
350
347
345
343
343
341
341
341
342
341
341
341
341
342
343
344
343
343
345
346
346
348
347
347
348
349
350
345
343
401
406
410
358
259
200
206
236
267
294
313
332
351
367
373
375
377
379
381
382
384
386
387
389
391
393
394
397
399
401
403
406
408
410
412
412
413
414
414
412
410
407
401
395
388
379
373
365
359
354
349
346
344
341
339
339
339
338
338
338
338
338
339
340
340
340
342
343
344
344
344
344
345
345
345
346
344
345
346
347
347
349
352
355
354
353
355
356
356
358
359
353
350
347
343
341
343
344
344
344
344
350
369
391
404
412
417
378
283
206
195
229
266
291
307
316
333
351
365
371
373
373
375
378
379
381
383
384
385
387
343
345

348
348
348
348
350
350
352
356
358
356
356
358
359
359
360
360
356
351
347
346
345
345
344
345
344
347
358
378
393
399
403
386
299
207
186
216
256
288
309
321
338
355
368
372
373
375
377
379
381
382
384
386
387
390
392
394
396
399
401
401
402
404
405
406
408
408
406
405
402
399
394
388
381
375
369
364
359
354
351
347
344
343
342
342
341
341
342
342
341
341
342
343
342
343
344
345
345
346
346
347
347
349
349
349
350
353
357
358
359
359
358
358
360
359
355
350
347
344
343
343
343
342
343
345
359
381
394
399
399
364
395
398
404
403
402
400
399
396
390
383
377
371
365
359
355
351
348
347
345
342
340
341
341
341
343
342
342
342
342
343
343
344
344
345
346
347
348
347
348
349
349
349
350
350
352
355
355
355
354
356
358
359
358
357
355
351
346
344
344
344
345
346
345
347
360
383
401
411
418
414
340
243
197
209
249
281
308
318
327
345
362
370
373
375
376
377
379
382
383
385
386
386
387
390
391
392
393
395
398
399
399
399
398
399
399
398
397
393
390
386
381
376
371
364
361
358
354
350
348
345
343
343
345
345
345
345
344
344
343
343
345
405
403
442
277
302
317
334
352
368
375
377
377
378
380
382
384
386
389
390
392
394
395
397
398
402
403
404
407
409
410
411
411
410
408
407
404
400
393
386
380
374
367
361
356
352
349
346
344
343
342
342
341
342
342
342
342
343
344
343
343
345
345
346
345
346
346
346
346
347
347
348
349
349
351
351
356
358
357
358
358
356
358
360
357
354
349
347
345
344
344
344
345
344
346
360
384
398
405
409
375
276
198
193
226
263
291
309
327
345
363
371
374
376
378
379
380
383
385
387
389
391
395
397
399
402
404
405
408
409
411
413
414
414
41
396
390
3
363
359
355
349
347
348
346
343
342
344
343
343
344
342
341
342
343
342
343
344
347
346
346
346
346
347
348
348
346
347
348
349
348
349
350
351
354
354
352
353
353
356
357
357
355
352
348
345
346
345
346
344
344
345
348
364
387
403
412
421
409
328
238
201
219
257
288
310
318
329
345
362
369
370
372
375
377
380
381
382
381
383
386
388
388
390
393
393
395
397
396
397
397
398
398
396
396
395
391
388
385
378
373
368
362
358
354
351
347
346
345
344
343
342
341
342
343
342
343
344
344
344
346
346
347
347
348
349
350
350
349
404
409
407
404
398
392
384
376
370
364
359
354
351
347
345
343
343
342
342
341
342
343
343
342
342
342
343
344
344
344
344
345
347
348
346
346
347
347
348
349
350
350
349
351
354
356
355
357
357
357
357
358
358
353
349
346
343
343
343
344
343
343
345
355
379
398
406
410
391
301
209
186
214
252
284
307
325
342
362
372
375
377
380
381
383
382
384
387
388
390
393
395
397
400
401
404
408
410
412
413
414
416
415
414
413
411
408
405
398
391
384
377
368
362
357
353
348
346
343
342
340
340
341
341
340
341
342
341
342
342
343
34
345
345
9
350
351
350
349
351
352
353
353
354
353
352
353
354
358
359
356
358
358
359
360
361
359
355
352
349
346
346
347
347
347
348
349
360
383
402
411
416
408
335
241
201
216
256
287
310
321
330
345
362
370
373
375
378
380
381
381
384
386
386
387
389
391
393
395
397
398
399
400
402
403
403
403
401
400
398
395
391
384
378
374
368
363
358
354
351
347
346
345
344
344
344
343
344
343
343
343
342
342
342
342
343
345
346
346
346
347
348
348
348
349
349
351
352
352
351
353
356
358
356
357
358
358
359
359
358
355
351
347
345
345
356
378
380
395
397
399
402
405
407
408
410
411
412
413
412
411
411
409
402
396
390
383
375
369
361
355
350
346
342
339
339
339
338
338
338
338
338
338
339
339
340
340
341
341
341
341
342
343
342
343
344
344
344
344
345
345
345
346
347
348
351
352
350
351
352
354
355
355
353
351
346
342
342
343
343
342
341
343
348
362
384
400
409
418
400
312
223
195
220
259
287
306
315
329
346
362
370
372
373
374
379
380
380
382
385
386
388
389
391
392
395
397
398
399
400
401
402
402
401
402
400
398
395
390
385
379
375
369
362
357
353
350
348
366
346
347
3
350
351
353
355
358
357
356
358
358
360
361
362
358
353
349
348
347
345
345
346
345
346
355
375
393
400
405
400
323
223
182
204
245
279
305
319
335
353
367
373
376
377
380
382
384
384
385
387
389
391
393
395
398
401
403
406
407
408
409
410
410
409
410
409
407
403
398
392
386
379
373
367
361
356
352
348
345
343
342
341
340
340
341
340
340
339
341
342
342
341
342
343
344
345
344
346
346
347
346
346
347
347
349
352
356
355
356
356
357
357
358
356
352
348
346
343
343
343
344
343
344
345
358
380
395
402
406
374
275
194
185
392
39
405
407
408
408
405
404
403
399
397
393
386
380
374
368
362
357
353
349
345
343
342
341
339
338
340
340
339
339
341
342
342
342
343
345
344
344
345
345
345
347
347
347
348
350
350
349
351
352
355
356
355
354
355
357
358
357
356
354
351
346
345
346
345
345
345
346
348
362
385
403
413
423
422
350
252
202
209
248
280
306
317
328
343
360
370
374
374
375
376
380
382
382
384
386
387
388
388
390
391
394
396
397
398
398
399
399
401
398
397
396
393
389
385
378
374
370
366
361
356
352
348
346
346
345
344
344
343
343
343
344
344
349
350
348
346
345
345
345
345
343
345
357
380
397
406
411
388
293
206
188
218
257
287
306
323
341
360
368
372
374
374
377
380
383
385
386
387
390
392
394
398
401
402
405
407
409
412
414
415
415
416
415
413
411
408
403
395
387
380
373
366
360
355
350
348
345
343
342
342
341
339
338
340
341
340
341
342
341
341
343
342
342
343
345
345
345
345
347
347
347
348
348
348
348
349
350
351
354
357
355
355
355
356
357
358
358
355
351
348
346
344
344
344
345
346
347
355
379
399
409
418
405
316
225
197
217
252
283
305
322
342
362
37
345
344
344
344
344
345
346
346
347
347
348
348
349
349
350
351
350
351
351
351
350
349
350
353
356
356
354
353
355
356
357
359
356
352
347
344
344
344
346
345
345
346
348
363
389
404
412
419
407
321
226
196
221
258
287
309
318
332
348
362
370
372
375
377
378
380
382
382
384
387
389
391
391
392
393
397
397
399
401
401
402
402
402
401
400
399
395
390
385
380
373
367
360
356
354
351
348
345
343
342
342
342
341
340
341
341
342
342
343
342
344
345
346
346
346
347
347
348
349
349
350
349
350
350
349
350
349
350
352
355
356
355
356
346
347
352
352
352
354
354
356
357
356
353
349
347
344
344
344
345
344
342
344
350
370
393
405
413
416
360
261
204
208
237
267
292
310
329
348
365
371
374
377
377
380
382
383
384
386
388
390
393
394
396
398
401
403
404
406
409
410
412
415
414
414
412
411
406
400
393
386
379
371
364
358
352
346
344
341
339
337
338
338
339
339
340
338
338
339
338
338
341
340
341
341
342
343
343
343
344
345
344
345
346
345
344
343
345
346
345
344
345
347
349
350
351
352
354
355
356
355
353
348
345
342
342
343
342
342
341
342
350
371
395
407
304
319
326
378
380
382
383
386
387
387
389
392
393
394
395
397
399
401
402
403
403
403
404
403
401
399
395
389
383
378
372
365
361
356
352
349
347
346
344
343
342
342
343
344
343
343
343
344
345
344
344
344
344
345
346
346
346
346
347
347
348
349
348
348
349
351
353
354
353
355
355
356
357
357
354
351
347
345
343
342
343
343
343
345
348
366
388
399
404
409
364
263
193
196
233
267
296
313
326
342
359
370
