372
369
364
361
359
358
357
355
356
356
355
356
357
357
356
356
358
359
360
361
361
361
361
361
361
362
362
362
363
363
364
367
369
369
370
370
372
372
373
368
364
360
356
355
355
354
354
355
355
363
386
406
414
417
403
319
219
184
209
251
284
308
325
346
365
377
383
385
386
387
388
389
392
395
397
398
400
402
403
405
407
408
409
411
411
412
411
410
408
407
405
404
401
397
391
386
379
372
365
358
353
349
343
339
337
335
333
332
330
330
329
328
329
329
329
328
328
328
328
328
327
325
326
325
324
323
321
319
317
318
318
318
318
319
320
318
318
319
320
322
322
317
312
306
302
299
300
298
298
296
295
300
319
341
351
357
362
308
202
131
129
167
202
229
246
265
285
302
308
311
313
311
312
313
314
316
317
317
318
318
320
322
321
322
324
324
323
323
323
322
321
319
319
317
314
311
307
302
296
290
282
276
271
266
261
259
257
255
253
251
251
251
251
253
254
254
254
255
256
255
256
257
257
258
259
259
259
260
260
261
260
260
261
262
263
265
270
271
271
273
275
276
277
279
276
273
271
270
272
272
275
275
278
281
297
323
343
354
360
350
270
167
121
144
191
225
251
262
280
302
322
333
336
338
343
345
348
352
356
361
365
369
375
378
384
387
391
395
399
402
406
409
411
414
416
419
422
422
425
425
425
424
423
422
422
420
420
420
421
421
424
428
431
432
437
441
445
449
453
459
465
469
472
476
478
481
483
485
487
489
490
489
491
495
495
498
503
506
506
507
510
512
515
515
516
514
511
508
507
507
509
509
509
510
511
525
550
571
578
581
572
494
394
355
375
415
448
469
479
492
510
526
534
537
536
535
534
535
538
538
536
537
538
539
539
540
542
541
540
539
538
536
536
533
531
528
525
520
516
511
503
496
489
481
474
467
461
455
450
444
440
437
434
432
431
429
425
423
423
423
423
421
419
418
415
416
414
411
408
406
404
403
401
399
395
396
395
396
393
391
391
390
390
389
387
383
376
370
366
363
362
361
358
358
360
374
395
409
414
415
390
298
209
185
215
255
282
300
305
317
333
348
353
355
356
356
356
357
358
358
359
358
358
359
360
361
362
363
365
365
365
365
363
361
359
359
358
355
351
346
342
338
333
328
324
320
315
310
308
306
304
302
301
300
299
298
298
297
297
298
298
296
296
296
297
296
296
295
296
295
296
297
296
296
298
300
298
298
297
299
299
299
297
294
288
285
282
280
279
278
277
277
281
299
320
332
338
336
298
201
124
119
154
193
222
237
245
259
276
289
293
294
292
295
297
299
298
300
301
302
304
306
307
307
308
310
311
312
312
312
312
311
311
311
307
304
300
295
289
284
280
276
271
265
263
259
257
257
256
255
253
252
252
252
255
256
258
259
260
260
260
261
264
265
265
266
267
268
269
269
271
272
275
278
278
278
280
281
283
284
284
282
276
273
271
272
274
274
276
278
288
312
330
336
336
326
247
149
121
152
194
225
248
263
279
296
311
317
319
320
323
326
329
332
334
336
339
343
347
349
351
352
354
356
360
363
365
366
368
367
365
364
364
362
357
353
346
341
337
333
327
323
320
317
316
316
317
317
317
317
317
317
320
320
321
321
323
325
326
327
329
329
331
333
334
335
335
336
337
338
341
345
347
346
346
347
349
352
352
352
349
344
342
341
342
343
344
344
346
358
381
400
408
407
386
292
204
187
223
263
294
314
330
349
368
379
383
384
386
391
392
394
396
398
400
402
406
408
411
412
415
417
419
421
422
425
425
428
427
425
422
420
417
414
409
402
396
389
384
378
372
368
365
363
362
363
362
362
361
360
361
363
362
362
362
362
363
363
364
366
367
367
367
368
368
369
370
371
372
371
373
377
378
378
377
380
380
381
379
375
371
367
366
366
366
366
366
366
372
393
415
424
424
417
350
246
201
222
264
299
323
338
356
377
393
400
403
403
405
407
409
411
411
413
417
417
420
422
424
426
428
430
432
433
433
433
433
433
433
431
429
424
420
415
409
402
396
388
382
377
371
367
366
364
361
359
360
360
361
361
361
361
361
361
362
363
363
364
364
363
364
365
364
365
365
365
366
366
365
367
369
373
373
372
373
373
375
375
376
370
367
362
359
359
358
358
359
359
360
371
397
415
421
422
400
304
213
191
224
263
295
317
336
356
375
386
390
391
392
394
396
397
399
402
404
405
407
410
412
414
416
418
419
420
420
422
420
421
421
418
415
414
411
407
401
393
386
379
373
366
361
355
352
350
347
345
342
343
341
340
339
340
341
341
342
342
341
342
343
342
341
342
341
340
339
340
339
338
337
338
336
337
339
339
337
336
336
337
338
339
336
332
327
322
319
316
316
315
313
312
314
326
349
365
371
376
361
270
171
140
167
206
234
255
268
286
305
317
321
321
321
321
322
322
323
323
325
326
326
327
328
328
328
330
330
330
330
328
328
327
325
324
323
320
317
313
306
300
293
287
280
272
265
260
255
252
249
246
245
243
242
240
240
241
242
242
242
242
243
243
244
245
246
245
244
244
244
245
248
248
249
250
252
254
258
259
258
259
261
264
266
267
265
261
259
257
259
261
262
264
265
268
278
302
327
339
345
344
278
176
120
134
180
219
248
260
275
294
315
328
334
339
341
344
348
354
357
360
364
368
373
377
380
383
387
390
395
398
401
405
406
409
411
413
416
416
415
414
412
409
406
404
404
402
400
400
401
404
406
408
413
417
417
420
423
425
429
431
435
438
440
442
447
449
450
453
456
457
456
457
459
460
463
466
468
467
466
468
471
473
473
471
468
464
458
454
454
453
453
453
455
457
471
496
512
519
523
508
422
324
292
314
354
385
405
413
426
443
458
464
466
466
465
466
465
464
464
464
464
465
465
464
463
463
463
461
461
461
458
455
453
450
446
441
437
434
429
421
414
408
402
394
388
383
378
376
371
366
362
359
356
354
352
349
346
343
343
341
339
339
338
336
333
331
330
329
329
326
323
321
320
321
323
321
319
317
315
316
316
314
309
302
296
291
292
291
288
288
289
289
302
324
338
344
345
323
235
146
122
151
192
222
240
247
260
275
289
297
299
298
298
300
303
304
306
308
309
310
312
314
316
317
318
320
321
322
322
323
322
323
322
321
318
314
311
306
300
295
291
288
285
283
280
276
274
273
274
275
276
275
276
276
278
280
281
281
283
286
287
288
290
291
292
293
296
297
298
299
302
307
310
310
311
311
310
312
41
242
173
176
218
253
279
296
307
322
340
353
357
360
363
367
369
371
375
377
379
380
384
387
388
391
394
396
397
400
401
402
403
405
404
403
401
400
398
393
388
383
378
374
371
369
365
363
362
360
358
358
359
358
357
359
359
359
359
360
362
362
364
364
365
365
367
371
370
371
371
373
374
377
380
381
382
383
384
385
386
386
384
381
378
377
375
376
375
375
375
377
387
409
428
434
432
423
343
247
220
251
290
318
340
352
369
386
401
407
409
409
410
412
413
415
419
421
423
426
427
428
429
431
433
435
436
438
438
439
440
218
25
378
379
380
382
385
386
388
391
393
395
397
399
402
403
405
407
409
410
412
413
414
414
413
414
412
408
405
400
394
388
382
374
365
360
354
350
346
344
343
341
340
340
339
339
340
340
341
340
341
343
344
345
347
346
347
347
348
347
348
348
347
347
347
347
347
346
347
348
350
352
352
354
354
355
358
358
354
351
346
345
343
342
344
343
343
344
348
367
391
404
410
414
363
259
192
194
229
263
290
308
329
348
365
373
377
377
378
381
384
385
387
389
389
390
392
395
398
400
402
403
406
407
408
410
411
410
410
410
407
405
257
290
379
381
383
387
387
389
389
392
393
393
395
397
399
399
400
402
403
404
404
403
402
400
398
394
391
386
381
376
371
366
362
358
355
353
350
349
347
347
347
346
346
346
347
346
347
349
348
348
348
349
349
350
351
353
354
354
355
354
355
358
361
361
360
361
362
362
362
362
357
352
350
348
348
347
347
347
348
352
369
391
403
407
407
375
278
196
190
228
267
295
313
323
338
355
370
374
376
378
379
380
382
384
385
387
387
390
391
393
395
397
399
399
401
401
402
402
402
400
400
397
394
390
386
380
374
369
362
359
356
352
344
364
260
179
176
218
258
288
308
326
346
365
373
376
377
378
380
383
385
386
389
392
393
396
398
401
403
405
407
409
412
414
415
415
415
415
414
412
410
406
399
393
385
380
372
366
360
355
350
348
346
345
344
344
344
342
342
341
341
341
341
342
342
343
344
344
346
347
346
347
348
348
348
348
348
348
349
350
351
354
354
355
356
357
359
362
359
353
349
346
343
343
344
345
345
345
348
360
385
402
408
414
389
292
203
184
216
254
287
309
326
346
367
377
381
382
383
385
388
390
392
394
397
398
401
403
405
408
410
412
415
322
329
330
329
328
327
325
322
319
315
311
307
302
296
291
286
281
278
274
270
269
269
268
266
265
267
267
264
266
268
268
267
269
271
272
272
275
275
274
274
277
279
280
280
281
281
282
285
287
290
290
292
293
294
296
297
296
295
293
290
288
288
289
289
292
294
301
319
345
360
368
372
339
244
163
151
187
228
256
276
286
302
320
336
344
347
349
353
357
359
361
366
368
370
373
375
377
381
384
386
387
389
393
395
396
396
397
397
395
395
392
388
384
379
376
372
367
363
361
359
356
356
355
356
357
357
358
359
359
360
360
368
368
761
371
371
371
370
370
371
372
373
376
376
376
377
376
375
375
375
374
369
365
361
360
359
359
359
360
359
360
376
401
415
419
418
387
284
204
200
238
274
300
318
332
350
368
379
383
384
386
386
388
389
393
393
396
398
400
402
403
405
408
409
410
412
414
414
415
415
414
413
412
408
402
396
389
382
374
368
362
356
352
348
345
342
341
339
339
339
339
339
339
339
340
339
339
337
338
339
338
339
340
341
342
343
343
343
343
344
344
344
345
346
345
346
348
351
352
351
352
351
353
355
355
351
346
343
342
340
340
341
340
340

0414
416
394
389
381
374
369
363
356
353
350
347
346
345
344
343
343
343
342
342
342
343
344
346
346
346
345
346
348
347
347
348
348
346
347
348
348
346
347
346
347
346
346
347
347
345
344
347
347
349
349
351
351
355
356
357
357
352
348
344
343
343
343
344
344
345
348
363
389
407
415
417
407
328
231
193
214
254
280
302
315
332
350
367
374
377
379
381
382
383
385
388
389
390
391
394
394
396
398
399
401
402
403
402
402
402
402
402
401
399
395
391
387
382
377
371
366
361
356
353
351
350
346
345
344
343
342
340
341
341
342
342
99
408
408
276
300
313
328
345
361
371
375
377
379
381
382
383
385
388
390
392
394
395
397
399
401
403
404
406
407
408
408
410
408
407
405
403
398
391
384
379
373
367
362
357
353
350
348
346
345
345
344
343
342
343
343
342
342
342
343
343
343
344
344
346
347
347
347
347
347
347
347
347
348
348
350
350
350
352
355
356
356
357
356
358
359
359
356
352
348
346
346
346
345
345
346
347
361
389
406
410
407
381
282
194
183
220
258
285
305
321
339
358
370
374
376
377
379
381
383
386
387
388
390
393
394
396
398
401
403
405
406
409
41
342
342
346
345
347
346
346
346
347
348
348
348
347
348
350
353
354
354
355
358
359
360
359
354
350
346
345
345
346
346
346
345
346
358
381
400
408
414
404
320
223
190
212
247
279
303
318
337
358
374
378
380
381
383
385
388
389
392
394
395
398
400
402
404
405
406
408
410
412
412
414
415
414
413
412
410
407
405
399
393
387
380
373
366
361
357
352
350
347
346
345
344
345
345
343
344
344
346
346
347
347
349
349
351
351
350
351
352
352
351
351
352
352
352
352
352
352
352
351
351
352
354
357
356
356
357
359
360
361
360
356
352
65
352
348
345
345
345
345
353
375
398
409
417
418
362
263
198
198
237
271
296
311
321
339
358
371
375
377
379
381
381
383
385
386
388
390
391
393
395
396
397
400
401
402
402
403
404
403
402
401
400
398
394
390
384
377
372
368
363
359
355
352
350
349
348
346
343
342
343
343
345
344
345
343
345
345
346
347
346
348
348
348
349
349
349
349
350
349
350
352
352
351
353
355
356
354
354
355
357
358
359
358
356
352
347
346
346
347
346
345
348
351
369
393
408
415
420
395
302
215
194
224
263
291
311
319
334
352
367
374
376
378
382
383
376
371
467
345
344
343
343
343
342
343
344
343
343
343
343
343
344
344
344
346
347
348
348
348
348
348
348
349
350
350
350
352
355
354
354
355
356
357
358
358
355
353
348
345
344
343
343
344
343
346
354
378
396
402
402
391
310
211
181
209
250
281
302
317
334
352
366
373
375
377
378
381
382
384
386
389
391
392
394
397
400
401
403
405
407
408
410
411
412
413
412
411
408
403
399
392
385
377
372
366
360
356
353
348
345
345
342
341
341
340
341
341
340
342
342
340
342
343
343
345
345
345
345
345
345
345
347
346
346
347
347
346
346
343
344
350
350
350
351
354
356
356
352
348
345
342
341
341
342
342
341
342
347
367
394
408
415
418
366
260
193
195
230
262
289
308
328
350
367
374
377
379
382
384
385
388
391
392
394
396
399
400
403
406
408
409
411
414
416
416
419
419
419
417
415
412
410
405
399
394
387
380
372
366
358
355
353
350
348
347
346
346
345
345
345
346
346
346
346
348
348
349
350
352
351
350
351
352
351
352
352
353
353
353
353
352
352
353
353
354
353
353
353
353
352
352
353
354
354
353
354
356
359
360
360
360
363
367
368
364
360
357
356
353
353
215
373
374
376
378
379
381
383
384
385
387
389
390
392
396
397
397
401
403
404
402
403
405
405
403
402
398
393
388
383
377
370
364
360
354
351
350
348
345
344
343
342
342
340
340
340
341
342
341
340
341
342
343
343
344
345
346
347
349
348
348
348
349
350
350
350
350
350
349
352
355
357
356
356
357
358
358
358
357
355
351
348
347
346
345
345
346
347
348
363
389
406
412
415
401
315
220
195
223
260
286
308
319
333
349
365
371
373
375
377
380
382
384
385
387
388
390
392
394
396
396
399
401
403
404
405
406
407
406
405
404
40
342
342
4
344
343
344
346
350
350
350
351
352
353
355
355
351
347
344
341
340
340
341
341
340
342
349
370
397
409
412
407
339
234
184
200
236
267
292
311
330
351
367
372
374
376
378
381
383
386
388
389
391
392
394
397
398
401
404
407
409
410
412
414
415
415
416
415
413
411
406
401
394
386
378
370
364
358
353
348
345
342
341
340
339
340
340
339
340
339
339
339
340
341
343
343
344
344
344
345
344
345
347
348
348
348
347
348
348
348
347
347
348
350
348
348
351
352
354
353
355
355
356
359
360
357
353
349
346
345
346
346
347
346
3
365
389
189
216
258
287
306
317
332
349
367
374
376
377
380
383
385
385
388
389
391
393
395
396
397
398
400
402
402
403
404
405
406
405
404
404
403
398
395
389
384
377
372
368
362
357
354
352
348
346
346
346
345
343
343
344
344
344
343
344
343
343
344
345
346
348
348
349
348
349
349
349
349
350
351
350
352
355
357
357
356
358
359
359
360
356
352
350
348
346
346
346
347
347
348
355
375
396
408
416
420
378
280
206
196
231
267
297
314
320
334
352
367
373
375
377
377
380
381
382
385
386
387
390
392
393
394
397
399
401
403
404
40
366
360
359
346
344
344
342
340
342
342
341
341
341
341
341
343
342
342
343
342
343
344
344
344
346
346
347
347
347
348
350
352
352
352
354
356
357
357
356
352
348
345
343
343
343
343
344
345
349
366
388
398
401
399
344
240
180
192
235
272
298
313
330
347
365
373
376
378
379
380
383
384
386
388
390
392
395
397
398
400
403
405
407
409
411
412
413
413
413
411
409
407
403
395
388
381
373
367
362
355
349
347
344
342
340
339
339
339
339
339
338
338
337
339
338
339
339
340
340
340
340
342
342
344
344
345
345
345
346
346
347
350
351
366
376
378
379
381
382
385
387
390
390
393
396
397
397
398
399
397
395
393
389
382
375
367
360
353
345
339
334
330
327
324
322
321
320
321
320
320
319
318
319
319
319
320
321
321
321
323
323
323
322
323
323
323
324
325
325
324
324
324
325
325
325
325
326
326
328
331
331
331
332
334
335
337
334
330
326
322
321
321
323
323
322
324
329
347
371
383
391
399
355
255
185
180
213
247
274
290
306
329
348
356
360
361
362
365
367
369
371
373
375
379
380
381
383
386
388
389
392
394
394
395
397
398
397
396
397
395
392
387
379
409
411
40
402
397
390
385
380
374
368
364
360
358
357
355
355
353
352
353
353
352
352
352
352
354
354
355
355
356
356
358
358
358
358
359
360
361
360
360
359
359
361
360
360
359
360
362
364
365
364
365
366
368
370
370
366
361
357
357
356
357
357
356
357
359
369
391
411
422
430
430
373
276
216
219
255
288
314
327
336
353
371
382
385
387
389
391
391
393
395
395
396
399
400
401
402
405
407
406
408
411
411
412
415
413
412
411
410
407
403
398
392
387
383
376
372
368
363
359
357
354
353
352
353
354
354
354
353
353
354
354
354
355
345
346
349
349
349
350
350
352
351
353
354
353
355
357
357
356
358
359
359
360
361
358
355
350
349
347
346
347
347
346
348
359
381
398
405
406
399
321
224
192
217
256
284
307
318
333
348
364
371
374
375
376
378
382
383
384
385
388
390
392
394
395
396
398
400
402
403
405
406
406
406
405
403
401
399
395
390
383
376
370
364
358
355
351
347
345
344
344
342
342
343
342
341
342
344
343
343
343
343
343
344
344
344
345
346
346
345
345
347
347
347
348
348
351
353
354
353
354
355
356
356
358
357
354
349
345
343
343
343
343
345
344
542
348
344
34
343
342
341
344
359
385
402
408
409
380
281
201
192
225
260
286
304
323
342
360
370
374
377
378
379
382
383
385
386
390
391
393
396
398
399
401
405
407
409
410
413
414
414
415
415
413
411
409
404
396
389
381
373
365
359
353
349
344
342
340
339
337
337
336
336
337
337
337
337
338
338
337
338
339
340
340
339
341
341
341
341
342
342
341
341
342
342
343
344
344
347
351
350
351
352
354
356
355
355
350
346
343
342
342
342
342
343
342
344
358
383
399
406
411
382
287
206
194
223
256
285
305
323
343
362
372
375
376
378
379
336
356
381
384
386
387
389
392
393
394
396
398
400
403
405
406
407
408
410
410
410
408
408
407
403
400
395
388
380
375
369
363
358
353
348
346
346
344
344
342
342
343
342
341
342
342
342
344
345
345
345
346
347
347
348
348
347
347
350
350
350
350
350
350
350
351
353
355
356
354
356
356
358
359
360
359
356
351
348
348
348
348
347
349
348
350
365
390
407
415
421
405
323
229
196
216
256
287
307
315
328
348
365
373
375
379
381
383
384
384
386
388
389
391
393
394
397
397
400
402
404
405
406
405
406
405
406
406
401
399
395
393
367
361
355
352
349
348
346
343
344
343
343
343
344
346
344
344
344
344
345
344
344
346
347
348
349
349
349
348
349
349
351
350
350
352
356
357
356
356
358
359
360
361
360
355
350
347
347
346
345
346
347
347
351
369
392
404
408
413
388
297
213
198
229
267
293
312
321
335
352
365
371
374
376
377
378
380
381
383
384
386
387
388
389
392
394
395
397
399
400
401
402
403
402
403
402
399
396
392
387
379
374
368
363
357
352
348
346
343
344
343
342
342
341
